X,Y,,
0,0.1,,
0.002,0.11,,
0.004,0.13,,
0.006,0.14,,
0.008,0.15,,
0.01,0.15,,
0.012,0.18,,
0.014,0.21,,
0.016,0.23,,
0.018,0.25,,
0.02,0.25,,
0.022,0.25,,
0.024,0.25,,
0.026,0.26,,
0.028,0.27,,
0.03,0.28,,
0.032,0.29,,
0.034,0.29,,
0.036,0.28,,
0.038,0.26,,
0.04,0.25,,
0.042,0.24,,
0.044,0.25,,
0.046,0.25,,
0.048,0.25,,
0.05,0.23,,
0.052,0.19,,
0.054,0.18,,
0.056,0.17,,
0.058,0.17,,
0.06,0.17,,
0.062,0.16,,
0.064,0.15,,
0.066,0.13,,
0.068,0.12,,
0.07,0.11,,
0.072,0.09,,
0.074,0.06,,
0.076,0.03,,
0.078,0,,
0.08,-0.01,,
0.082,-0.02,,
0.084,-0.03,,
0.086,-0.04,,
0.088,-0.06,,
0.09,-0.07,,
0.092,-0.1,,
0.094,-0.14,,
0.096,-0.16,,
0.098,-0.17,,
0.1,-0.19,,
0.102,-0.2,,
0.104,-0.21,,
0.106,-0.21,,
0.108,-0.22,,
0.11,-0.22,,
0.112,-0.21,,
0.114,-0.2,,
0.116,-0.2,,
0.118,-0.22,,
0.12,-0.23,,
0.122,-0.24,,
0.124,-0.23,,
0.126,-0.22,,
0.128,-0.21,,
0.13,-0.21,,
0.132,-0.22,,
0.134,-0.23,,
0.136,-0.25,,
0.138,-0.26,,
0.14,-0.26,,
0.142,-0.25,,
0.144,-0.24,,
0.146,-0.23,,
0.148,-0.21,,
0.15,-0.21,,
0.152,-0.22,,
0.154,-0.22,,
0.156,-0.21,,
0.158,-0.19,,
0.16,-0.18,,
0.162,-0.18,,
0.164,-0.19,,
0.166,-0.19,,
0.168,-0.17,,
0.17,-0.17,,
0.172,-0.17,,
0.174,-0.16,,
0.176,-0.16,,
0.178,-0.17,,
0.18,-0.18,,
0.182,-0.18,,
0.184,-0.17,,
0.186,-0.16,,
0.188,-0.15,,
0.19,-0.14,,
0.192,-0.15,,
0.194,-0.14,,
0.196,-0.12,,
0.198,-0.1,,
0.2,0.02,,
0.202,-0.100901699,, 
0.204,-0.140901699,,
0.206,0.000901699,,
0.208,-0.059098301,,
0.21,-0.18,,
0.212,-0.039098301,,
0.214,0.020901699,,
0.216,-0.130901699,,
0.218,-0.070901699,,
0.22,0.07,,
0.222,-0.060901699,,
0.224,-0.090901699,,
0.226,0.070901699,,
0.228,0.030901699,,
0.23,-0.1,,
0.232,0.030901699,,
0.234,0.070901699,,
0.236,-0.090901699,,
0.238,-0.030901699,,
0.24,0.11,,
0.242,-0.030901699,,
0.244,-0.070901699,,
0.246,0.100901699,,
0.248,0.040901699,,
0.25,-0.1,,
0.252,0.020901699,,
0.254,0.080901699,,
0.256,-0.080901699,,
0.258,-0.020901699,,
0.26,0.11,,
0.262,-0.030901699,,
0.264,-0.090901699,,
0.266,0.080901699,,
0.268,0.030901699,,
0.27,-0.1,,
0.272,0.040901699,,
0.274,0.090901699,,
0.276,-0.070901699,,
0.278,-0.020901699,,
0.28,0.13,,
0.282,0.019098301,,
0.284,-0.030901699,,
0.286,0.140901699,,
0.288,0.090901699,,
0.29,-0.05,,
0.292,0.060901699,,
0.294,0.120901699,,
0.296,-0.040901699,,
0.298,0.019098301,,
0.3,0.14,,
0.302,-0.000901699,,
0.304,-0.070901699,,
0.306,0.070901699,,
0.308,0.020901699,,
0.31,-0.1,,
0.312,0.040901699,,
0.314,0.110901699,,
0.316,-0.050901699,,
0.318,-0.010901699,,
0.32,0.11,,
0.322,-0.010901699,,
0.324,-0.050901699,,
0.326,0.110901699,,
0.328,0.060901699,,
0.33,-0.06,,
0.332,0.070901699,,
0.334,0.090901699,,
0.336,-0.080901699,,
0.338,-0.030901699,,
0.34,0.1,,
0.342,-0.030901699,,
0.344,-0.080901699,,
0.346,0.090901699,,
0.348,0.030901699,,
0.35,-0.1,,
0.352,0.050901699,,
0.354,0.110901699,,
0.356,-0.040901699,,
0.358,0.019098301,,
0.36,0.14,,
0.362,0.019098301,,
0.364,-0.010901699,,
0.366,0.170901699,,
0.368,0.130901699,,
0.37,0,,
0.372,0.130901699,,
0.374,0.160901699,,
0.376,-0.030901699,,
0.378,0.019098301,,
0.38,0.18,,
0.382,0.059098301,,
0.384,0.009098301,,
0.386,0.180901699,,
0.388,0.120901699,,
0.39,-0.04,,
0.392,0.090901699,,
0.394,0.150901699,,
0.396,0.019098301,,
0.398,0.079098301,,
0.4,0.23,,
0.402,0.13,,
0.404,0.13,,
0.406,0.14,,
0.408,0.13,,
0.41,0.12,,
0.412,0.12,,
0.414,0.14,,
0.416,0.14,,
0.418,0.12,,
0.42,0.12,,
0.422,0.12,,
0.424,0.12,,
0.426,0.13,,
0.428,0.16,,
0.43,0.17,,
0.432,0.17,,
0.434,0.18,,
0.436,0.18,,
0.438,0.17,,
0.44,0.19,,
0.442,0.28,,
0.444,0.4,,
0.446,0.52,,
0.448,0.66,,
0.45,0.79,,
0.452,0.9,,
0.454,0.99,,
0.456,1.06,,
0.458,1.1,,
0.46,1.1,,
0.462,1.04,,
0.464,0.91,,
0.466,0.67,,
0.468,0.37,,
0.47,0.11,,
0.472,-0.04,,
0.474,-0.14,,
0.476,-0.19,,
0.478,-0.22,,
0.48,-0.23,,
0.482,-0.23,,
0.484,-0.22,,
0.486,-0.22,,
0.488,-0.21,,
0.49,-0.19,,
0.492,-0.17,,
0.494,-0.14,,
0.496,-0.11,,
0.498,-0.07,,
0.5,-0.05,,
0.502,-0.07,,
0.504,-0.06,,
0.506,-0.03,,
0.508,-0.02,,
0.51,0,,
0.512,0,,
0.514,0.02,,
0.516,0.02,,
0.518,0.02,,
0.52,0.02,,
0.522,0.02,,
0.524,0.01,,
0.526,0.01,,
0.528,0.01,,
0.53,0,,
0.532,0,,
0.534,0,,
0.536,0,,
0.538,0,,
0.54,0,,
0.542,0,,
0.544,0,,
0.546,0.01,,
0.548,0.02,,
0.55,0.01,,
0.552,0,,
0.554,0,,
0.556,0,,
0.558,0,,
0.56,0,,
0.562,0.01,,
0.564,0.01,,
0.566,0.01,,
0.568,0,,
0.57,0.01,,
0.572,0.01,,
0.574,0.01,,
0.576,0.02,,
0.578,0.03,,
0.58,0.04,,
0.582,0.06,,
0.584,0.06,,
0.586,0.04,,
0.588,0.04,,
0.59,0.05,,
0.592,0.05,,
0.594,0.06,,
0.596,0.08,,
0.598,0.1,,
0.6,0.2,,
0.602,0.130901699,,
0.604,0.029098301,,
0.606,0.049098301,,
0.608,0.160901699,,
0.61,0.25,,
0.612,0.200901699,,
0.614,0.099098301,,
0.616,0.119098301,,
0.618,0.250901699,,
0.62,0.34,,
0.622,0.290901699,,
0.624,0.189098301,,
0.626,0.199098301,,
0.628,0.310901699,,
0.63,0.38,,
0.632,0.330901699,,
0.634,0.229098301,,
0.636,0.239098301,,
0.638,0.360901699,,
0.64,0.41,,
0.642,0.310901699,,
0.644,0.199098301,,
0.646,0.229098301,,
0.648,0.360901699,,
0.65,0.44,,
0.652,0.370901699,,
0.654,0.259098301,,
0.656,0.239098301,,
0.658,0.330901699,,
0.66,0.39,,
0.662,0.320901699,,
0.664,0.199098301,,
0.666,0.179098301,,
0.668,0.270901699,,
0.67,0.31,,
0.672,0.220901699,,
0.674,0.099098301,,
0.676,0.099098301,,
0.678,0.200901699,,
0.68,0.26,,
0.682,0.160901699,,
0.684,-0.010901699,,
0.686,-0.040901699,,
0.688,0.050901699,,
0.69,0.1,,
0.692,0.010901699,,
0.694,-0.120901699,,
0.696,-0.150901699,,
0.698,-0.079098301,,
0.7,-0.02,,
0.702,-0.099098301,,
0.704,-0.230901699,,
0.706,-0.250901699,,
0.708,-0.149098301,,
0.71,-0.09,,
0.712,-0.189098301,,
0.714,-0.300901699,,
0.716,-0.290901699,,
0.718,-0.179098301,,
0.72,-0.12,,
0.722,-0.189098301,,
0.724,-0.300901699,,
0.726,-0.320901699,,
0.728,-0.219098301,,
0.73,-0.14,,
0.732,-0.199098301,,
0.734,-0.300901699,,
0.736,-0.310901699,,
0.738,-0.199098301,,
0.74,-0.14,,
0.742,-0.219098301,,
0.744,-0.330901699,,
0.746,-0.310901699,,
0.748,-0.199098301,,
0.75,-0.14,,
0.752,-0.209098301,,
0.754,-0.320901699,,
0.756,-0.320901699,,
0.758,-0.199098301,,
0.76,-0.11,,
0.762,-0.149098301,,
0.764,-0.240901699,,
0.766,-0.240901699,,
0.768,-0.139098301,,
0.77,-0.07,,
0.772,-0.129098301,,
0.774,-0.240901699,,
0.776,-0.230901699,,
0.778,-0.099098301,,
0.78,-0.02,,
0.782,-0.099098301,,
0.784,-0.200901699,,
0.786,-0.180901699,,
0.788,-0.059098301,,
0.79,0.02,,
0.792,-0.049098301,,
0.794,-0.160901699,,
0.796,-0.170901699,,
0.798,-0.059098301,,
0.8,0.01,,
0.802,-0.09,,
0.804,-0.09,,
0.806,-0.08,,
0.808,-0.08,,
0.81,-0.07,,
0.812,-0.07,,
0.814,-0.06,,
0.816,-0.06,,
0.818,-0.06,,
0.82,-0.06,,
0.822,-0.04,,
0.824,-0.04,,
0.826,-0.04,,
0.828,-0.03,,
0.83,-0.02,,
0.832,-0.01,,
0.834,0,,
0.836,0,,
0.838,-0.02,,
0.84,-0.03,,
0.842,-0.02,,
0.844,-0.01,,
0.846,0,,
0.848,0.01,,
0.85,0.02,,
0.852,0.02,,
0.854,0.01,,
0.856,0.02,,
0.858,0.03,,
0.86,0.03,,
0.862,0.03,,
0.864,0.04,,
0.866,0.05,,
0.868,0.05,,
0.87,0.06,,
0.872,0.06,,
0.874,0.06,,
0.876,0.06,,
0.878,0.06,,
0.88,0.03,,
0.882,0.02,,
0.884,0.02,,
0.886,0.02,,
0.888,0.03,,
0.89,0.04,,
0.892,0.03,,
0.894,0.02,,
0.896,0.01,,
0.898,0.04,,
0.9,0.05,,
0.902,0.06,,
0.904,0.06,,
0.906,0.07,,
0.908,0.06,,
0.91,0.07,,
0.912,0.07,,
0.914,0.08,,
0.916,0.08,,
0.918,0.08,,
0.92,0.09,,
0.922,0.08,,
0.924,0.06,,
0.926,0.07,,
0.928,0.08,,
0.93,0.09,,
0.932,0.09,,
0.934,0.09,,
0.936,0.09,,
0.938,0.06,,
0.94,0.05,,
0.942,0.05,,
0.944,0.04,,
0.946,0.04,,
0.948,0.04,,
0.95,0.02,,
0.952,0,,
0.954,0,,
0.956,-0.01,,
0.958,-0.01,,
0.96,0,,
0.962,0,,
0.964,-0.01,,
0.966,-0.04,,
0.968,-0.05,,
0.97,-0.04,,
0.972,-0.04,,
0.974,-0.03,,
0.976,-0.04,,
0.978,-0.05,,
0.98,-0.07,,
0.982,-0.04,,
0.984,-0.03,,
0.986,-0.03,,
0.988,-0.04,,
0.99,-0.04,,
0.992,-0.05,,
0.994,-0.04,,
0.996,-0.01,,
0.998,0.01,,
1,0.02,,
1.002,-0.03,,
1.004,-0.04,,
1.006,-0.055,,
1.008,-0.065,,
1.01,-0.055,,
1.012,-0.04,,
1.014,-0.045,,
1.016,-0.025,,
1.018,-0.035,,
1.02,-0.03,,
1.022,-0.05,,
1.024,-0.055,,
1.026,-0.06,,
1.028,-0.06,,
1.03,-0.045,,
1.032,-0.045,,
1.034,-0.035,,
1.036,-0.02,,
1.038,-0.03,,
1.04,-0.03,,
1.042,-0.05,,
1.044,-0.055,,
1.046,-0.055,,
1.048,-0.06,,
1.05,-0.055,,
1.052,-0.05,,
1.054,-0.04,,
1.056,-0.055,,
1.058,-0.03,,
1.06,-0.055,,
1.062,-0.05,,
1.064,-0.05,,
1.066,-0.06,,
1.068,-0.06,,
1.07,-0.045,,
1.072,-0.04,,
1.074,-0.04,,
1.076,-0.04,,
1.078,-0.04,,
1.08,-0.05,,
1.082,-0.055,,
1.084,-0.055,,
1.086,-0.06,,
1.088,-0.055,,
1.09,-0.03,,
1.092,-0.03,,
1.094,-0.025,,
1.096,-0.02,,
1.098,-0.015,,
1.1,-0.025,,
1.102,-0.035,,
1.104,-0.045,,
1.106,-0.05,,
1.108,-0.055,,
1.11,-0.045,,
1.112,-0.04,,
1.114,-0.02,,
1.116,-0.015,,
1.118,-0.01,,
1.12,-0.015,,
1.122,-0.02,,
1.124,-0.03,,
1.126,-0.035,,
1.128,-0.04,,
1.13,-0.03,,
1.132,-0.03,,
1.134,-0.025,,
1.136,-0.015,,
1.138,-0.015,,
1.14,-0.025,,
1.142,-0.02,,
1.144,-0.035,,
1.146,-0.04,,
1.148,-0.045,,
1.15,-0.045,,
1.152,-0.03,,
1.154,-0.025,,
1.156,-0.005,,
1.158,-0.01,,
1.16,-0.03,,
1.162,-0.03,,
1.164,-0.035,,
1.166,-0.05,,
1.168,-0.06,,
1.17,-0.04,,
1.172,-0.04,,
1.174,-0.03,,
1.176,-0.02,,
1.178,-0.025,,
1.18,-0.04,,
1.182,-0.045,,
1.184,-0.02,,
1.186,-0.05,,
1.188,-0.055,,
1.19,-0.04,,
1.192,-0.03,,
1.194,-0.035,,
1.196,-0.015,,
1.198,-0.02,,
1.2,-0.04,,
1.202,-0.05,,
1.204,-0.055,,
1.206,-0.06,,
1.208,-0.06,,
1.21,-0.055,,
1.212,-0.04,,
1.214,-0.04,,
1.216,-0.035,,
1.218,-0.02,,
1.22,-0.035,,
1.222,-0.045,,
1.224,-0.05,,
1.226,-0.07,,
1.228,-0.07,,
1.23,-0.05,,
1.232,-0.045,,
1.234,-0.035,,
1.236,-0.035,,
1.238,-0.035,,
1.24,-0.045,,
1.242,-0.055,,
1.244,-0.05,,
1.246,-0.05,,
1.248,-0.04,,
1.25,-0.035,,
1.252,-0.025,,
1.254,-0.005,,
1.256,-0.01,,
1.258,-0.025,,
1.26,-0.04,,
1.262,-0.03,,
1.264,-0.035,,
1.266,-0.04,,
1.268,-0.04,,
1.27,-0.025,,
1.272,-0.015,,
1.274,-0.01,,
1.276,0.015,,
1.278,-0.005,,
1.28,-0.005,,
1.282,-0.015,,
1.284,-0.02,,
1.286,-0.025,,
1.288,-0.025,,
1.29,-0.01,,
1.292,0.005,,
1.294,0.015,,
1.296,0.02,,
1.298,0.015,,
1.3,0.005,,
1.302,0.005,,
1.304,0,,
1.306,0,,
1.308,0,,
1.31,0,,
1.312,0.005,,
1.314,0.02,,
1.316,0.03,,
1.318,0.02,,
1.32,-0.01,,
1.322,-0.025,,
1.324,-0.035,,
1.326,-0.055,,
1.328,-0.05,,
1.33,-0.045,,
1.332,-0.04,,
1.334,-0.045,,
1.336,-0.025,,
1.338,-0.035,,
1.34,-0.06,,
1.342,-0.06,,
1.344,-0.07,,
1.346,-0.08,,
1.348,-0.065,,
1.35,-0.055,,
1.352,-0.05,,
1.354,-0.05,,
1.356,-0.035,,
1.358,-0.055,,
1.36,-0.055,,
1.362,-0.06,,
1.364,-0.065,,
1.366,-0.065,,
1.368,-0.06,,
1.37,-0.065,,
1.372,-0.065,,
1.374,-0.065,,
1.376,-0.065,,
1.378,-0.065,,
1.38,-0.08,,
1.382,-0.085,,
1.384,-0.08,,
1.386,-0.1,,
1.388,-0.09,,
1.39,-0.08,,
1.392,-0.06,,
1.394,-0.045,,
1.396,-0.045,,
1.398,-0.055,,
1.4,-0.06,,
1.402,-0.085,,
1.404,-0.085,,
1.406,-0.1,,
1.408,-0.1,,
1.41,-0.08,,
1.412,-0.075,,
1.414,-0.07,,
1.416,-0.075,,
1.418,-0.095,,
1.42,-0.105,,
1.422,-0.115,,
1.424,-0.14,,
1.426,-0.155,,
1.428,-0.135,,
1.43,-0.105,,
1.432,-0.045,,
1.434,0.02,,
1.436,0.075,,
1.438,0.125,,
1.44,0.17,,
1.442,0.225,,
1.444,0.275,,
1.446,0.39,,
1.448,0.515,,
1.45,0.64,,
1.452,0.69,,
1.454,0.66,,
1.456,0.615,,
1.458,0.555,,
1.46,0.485,,
1.462,0.39,,
1.464,0.305,,
1.466,0.195,,
1.468,0.085,,
1.47,-0.03,,
1.472,-0.115,,
1.474,-0.155,,
1.476,-0.145,,
1.478,-0.125,,
1.48,-0.115,,
1.482,-0.11,,
1.484,-0.085,,
1.486,-0.05,,
1.488,-0.055,,
1.49,-0.03,,
1.492,-0.035,,
1.494,-0.045,,
1.496,-0.04,,
1.498,-0.04,,
1.5,-0.065,,
1.502,-0.07,,
1.504,-0.08,,
1.506,-0.075,,
1.508,-0.07,,
1.51,-0.06,,
1.512,-0.05,,
1.514,-0.03,,
1.516,-0.045,,
1.518,-0.045,,
1.52,-0.055,,
1.522,-0.06,,
1.524,-0.055,,
1.526,-0.06,,
1.528,-0.04,,
1.53,-0.035,,
1.532,-0.025,,
1.534,-0.01,,
1.536,-0.025,,
1.538,-0.045,,
1.54,-0.05,,
1.542,-0.055,,
1.544,-0.05,,
1.546,-0.055,,
1.548,-0.03,,
1.55,-0.025,,
1.552,-0.02,,
1.554,-0.01,,
1.556,-0.01,,
1.558,-0.02,,
1.56,-0.03,,
1.562,-0.025,,
1.564,-0.02,,
1.566,-0.015,,
1.568,0.005,,
1.57,0.02,,
1.572,0.025,,
1.574,0.025,,
1.576,0.015,,
1.578,0.005,,
1.58,-0.01,,
1.582,-0.01,,
1.584,-0.01,,
1.586,0.01,,
1.588,0.015,,
1.59,0.025,,
1.592,0.045,,
1.594,0.06,,
1.596,0.065,,
1.598,0.05,,
1.6,0.04,,
1.602,0.045,,
1.604,0.04,,
1.606,0.045,,
1.608,0.045,,
1.61,0.06,,
1.612,0.065,,
1.614,0.07,,
1.616,0.065,,
1.618,0.065,,
1.62,0.065,,
1.622,0.065,,
1.624,0.075,,
1.626,0.08,,
1.628,0.1,,
1.63,0.115,,
1.632,0.125,,
1.634,0.13,,
1.636,0.14,,
1.638,0.14,,
1.64,0.15,,
1.642,0.135,,
1.644,0.13,,
1.646,0.14,,
1.648,0.17,,
1.65,0.175,,
1.652,0.19,,
1.654,0.2,,
1.656,0.205,,
1.658,0.19,,
1.66,0.2,,
1.662,0.2,,
1.664,0.195,,
1.666,0.21,,
1.668,0.225,,
1.67,0.235,,
1.672,0.23,,
1.674,0.24,,
1.676,0.225,,
1.678,0.225,,
1.68,0.205,,
1.682,0.2,,
1.684,0.19,,
1.686,0.19,,
1.688,0.205,,
1.69,0.205,,
1.692,0.22,,
1.694,0.23,,
1.696,0.205,,
1.698,0.195,,
1.7,0.175,,
1.702,0.165,,
1.704,0.155,,
1.706,0.15,,
1.708,0.14,,
1.71,0.135,,
1.712,0.13,,
1.714,0.11,,
1.716,0.105,,
1.718,0.085,,
1.72,0.075,,
1.722,0.065,,
1.724,0.06,,
1.726,0.065,,
1.728,0.06,,
1.73,0.06,,
1.732,0.05,,
1.734,0.045,,
1.736,0.04,,
1.738,0.02,,
1.74,0.01,,
1.742,0,,
1.744,0,,
1.746,0.01,,
1.748,0.015,,
1.75,0.01,,
1.752,0.02,,
1.754,0.01,,
1.756,0,,
1.758,-0.02,,
1.76,-0.02,,
1.762,-0.04,,
1.764,-0.035,,
1.766,-0.025,,
1.768,-0.015,,
1.77,-0.005,,
1.772,0.005,,
1.774,-0.005,,
1.776,-0.02,,
1.778,-0.025,,
1.78,-0.025,,
1.782,-0.025,,
1.784,-0.025,,
1.786,-0.025,,
1.788,-0.01,,
1.79,0.005,,
1.792,0.015,,
1.794,0.01,,
1.796,0.005,,
1.798,-0.02,,
1.8,-0.015,,
1.802,-0.015,,
1.804,-0.02,,
1.806,-0.025,,
1.808,-0.02,,
1.81,-0.02,,
1.812,0,,
1.814,0.015,,
1.816,-0.005,,
1.818,-0.01,,
1.82,-0.02,,
1.822,-0.03,,
1.824,-0.03,,
1.826,-0.015,,
1.828,0,,
1.83,0.01,,
1.832,0.015,,
1.834,0.015,,
1.836,-0.005,,
1.838,-0.01,,
1.84,-0.035,,
1.842,-0.025,,
1.844,-0.025,,
1.846,-0.02,,
1.848,0.005,,
1.85,0.015,,
1.852,0.02,,
1.854,0.025,,
1.856,0,,
1.858,-0.01,,
1.86,-0.025,,
1.862,-0.035,,
1.864,-0.02,,
1.866,-0.01,,
1.868,0.005,,
1.87,0.005,,
1.872,0.01,,
1.874,0.015,,
1.876,0,,
1.878,-0.005,,
1.88,-0.02,,
1.882,-0.025,,
1.884,-0.025,,
1.886,-0.015,,
1.888,0,,
1.89,0.005,,
1.892,0.015,,
1.894,0.02,,
1.896,0,,
1.898,-0.015,,
1.9,-0.02,,
1.902,-0.03,,
1.904,-0.025,,
1.906,-0.005,,
1.908,-0.005,,
1.91,0,,
1.912,0.01,,
1.914,0.015,,
1.916,0.005,,
1.918,-0.01,,
1.92,-0.015,,
1.922,-0.02,,
1.924,-0.015,,
1.926,-0.005,,
1.928,-0.005,,
1.93,-0.005,,
1.932,-0.01,,
1.934,-0.01,,
1.936,-0.01,,
1.938,-0.015,,
1.94,-0.025,,
1.942,-0.025,,
1.944,-0.02,,
1.946,-0.01,,
1.948,-0.01,,
1.95,-0.005,,
1.952,-0.005,,
1.954,-0.01,,
1.956,-0.025,,
1.958,-0.025,,
1.96,-0.025,,
1.962,-0.035,,
1.964,-0.03,,
1.966,-0.02,,
1.968,-0.01,,
1.97,-0.005,,
1.972,-0.01,,
1.974,-0.015,,
1.976,-0.025,,
1.978,-0.03,,
1.98,-0.035,,
1.982,-0.04,,
1.984,-0.025,,
1.986,-0.02,,
1.988,-0.015,,
1.99,-0.005,,
1.992,0,,
1.994,-0.01,,
1.996,-0.025,,
1.998,-0.03,,
2,-0.045,,
2.002,-0.125,,
2.004,-0.14,,
2.006,-0.11,,
2.008,-0.11,,
2.01,-0.09,,
2.012,0.015,,
2.014,-0.01,,
2.016,-0.03,,
2.018,-0.06,,
2.02,-0.055,,
2.022,-0.115,,
2.024,-0.155,,
2.026,-0.095,,
2.028,-0.12,,
2.03,-0.08,,
2.032,-0.03,,
2.034,-0.02,,
2.036,-0.12,,
2.038,-0.035,,
2.04,0.03,,
2.042,-0.125,,
2.044,-0.105,,
2.046,-0.115,,
2.048,-0.095,,
2.05,-0.045,,
2.052,-0.045,,
2.054,-0.06,,
2.056,-0.095,,
2.058,-0.085,,
2.06,-0.13,,
2.062,-0.195,,
2.064,-0.145,,
2.066,-0.125,,
2.068,-0.04,,
2.07,-0.005,,
2.072,-0.015,,
2.074,-0.025,,
2.076,-0.12,,
2.078,-0.195,,
2.08,-0.12,,
2.082,-0.08,,
2.084,-0.1,,
2.086,-0.06,,
2.088,-0.03,,
2.09,0.005,,
2.092,0.005,,
2.094,-0.03,,
2.096,-0.06,,
2.098,-0.1,,
2.1,-0.305,,
2.102,-0.195,,
2.104,-0.045,,
2.106,-0.08,,
2.108,-0.095,,
2.11,-0.055,,
2.112,-0.03,,
2.114,0,,
2.116,0.05,,
2.118,0,,
2.12,-0.155,,
2.122,-0.28,,
2.124,-0.36,,
2.126,-0.23,,
2.128,-0.07,,
2.13,0.01,,
2.132,0.025,,
2.134,-0.01,,
2.136,-0.035,,
2.138,-0.09,,
2.14,-0.17,,
2.142,-0.275,,
2.144,-0.24,,
2.146,-0.09,,
2.148,-0.03,,
2.15,0.025,,
2.152,-0.02,,
2.154,-0.02,,
2.156,0.03,,
2.158,-0.01,,
2.16,-0.09,,
2.162,-0.12,,
2.164,-0.14,,
2.166,-0.2,,
2.168,-0.095,,
2.17,0.025,,
2.172,0.085,,
2.174,-0.08,,
2.176,-0.045,,
2.178,-0.005,,
2.18,-0.07,,
2.182,-0.055,,
2.184,-0.06,,
2.186,-0.055,,
2.188,-0.145,,
2.19,0.01,,
2.192,0.01,,
2.194,-0.065,,
2.196,0.015,,
2.198,0.03,,
2.2,-0.045,,
2.202,-0.135,,
2.204,-0.12,,
2.206,-0.085,,
2.208,-0.14,,
2.21,-0.115,,
2.212,0.065,,
2.214,0.1,,
2.216,0.025,,
2.218,-0.055,,
2.22,-0.12,,
2.222,-0.11,,
2.224,-0.2,,
2.226,-0.19,,
2.228,-0.12,,
2.23,-0.03,,
2.232,-0.035,,
2.234,-0.025,,
2.236,-0.06,,
2.238,-0.07,,
2.24,-0.075,,
2.242,-0.21,,
2.244,-0.23,,
2.246,-0.135,,
2.248,-0.085,,
2.25,-0.085,,
2.252,-0.09,,
2.254,-0.115,,
2.256,-0.115,,
2.258,-0.11,,
2.26,-0.115,,
2.262,-0.12,,
2.264,-0.09,,
2.266,-0.04,,
2.268,-0.05,,
2.27,-0.115,,
2.272,-0.125,,
2.274,-0.175,,
2.276,-0.075,,
2.278,-0.065,,
2.28,-0.225,,
2.282,-0.23,,
2.284,-0.225,,
2.286,-0.2,,
2.288,-0.14,,
2.29,-0.075,,
2.292,-0.085,,
2.294,-0.005,,
2.296,-0.075,,
2.298,-0.11,,
2.3,-0.155,,
2.302,-0.17,,
2.304,-0.205,,
2.306,-0.215,,
2.308,-0.2,,
2.31,-0.095,,
2.312,-0.055,,
2.314,-0.17,,
2.316,-0.185,,
2.318,-0.105,,
2.32,-0.08,,
2.322,-0.065,,
2.324,-0.01,,
2.326,0.05,,
2.328,0.115,,
2.33,0.18,,
2.332,0.32,,
2.334,0.48,,
2.336,0.575,,
2.338,0.54,,
2.34,0.575,,
2.342,0.66,,
2.344,0.71,,
2.346,0.72,,
2.348,0.695,,
2.35,0.51,,
2.352,0.49,,
2.354,0.38,,
2.356,0.205,,
2.358,0.04,,
2.36,-0.05,,
2.362,-0.195,,
2.364,-0.275,,
2.366,-0.175,,
2.368,-0.21,,
2.37,-0.08,,
2.372,-0.025,,
2.374,-0.09,,
2.376,-0.11,,
2.378,-0.095,,
2.38,-0.05,,
2.382,-0.15,,
2.384,-0.085,,
2.386,-0.105,,
2.388,-0.01,,
2.39,-0.04,,
2.392,-0.02,,
2.394,-0.035,,
2.396,-0.06,,
2.398,-0.095,,
2.4,-0.105,,
2.402,-0.15,,
2.404,-0.205,,
2.406,-0.22,,
2.408,-0.095,,
2.41,-0.03,,
2.412,-0.03,,
2.414,-0.025,,
2.416,-0.07,,
2.418,-0.025,,
2.42,-0.085,,
2.422,-0.1,,
2.424,-0.135,,
2.426,-0.155,,
2.428,-0.055,,
2.43,0,,
2.432,0.015,,
2.434,-0.035,,
2.436,0.01,,
2.438,-0.065,,
2.44,-0.015,,
2.442,-0.105,,
2.444,-0.2,,
2.446,-0.1,,
2.448,-0.015,,
2.45,-0.025,,
2.452,-0.035,,
2.454,-0.085,,
2.456,-0.11,,
2.458,0.03,,
2.46,0.08,,
2.462,-0.035,,
2.464,-0.05,,
2.466,-0.03,,
2.468,0.035,,
2.47,0.055,,
2.472,0.065,,
2.474,-0.045,,
2.476,-0.12,,
2.478,-0.065,,
2.48,-0.15,,
2.482,-0.255,,
2.484,-0.075,,
2.486,0.06,,
2.488,0.12,,
2.49,0.095,,
2.492,0.075,,
2.494,0.065,,
2.496,0.06,,
2.498,0,,
2.5,-0.04,,
2.502,0.01,,
2.504,0.015,,
2.506,0.02,,
2.508,0.015,,
2.51,-0.035,,
2.512,0.04,,
2.514,0.055,,
2.516,0.105,,
2.518,0.08,,
2.52,0.11,,
2.522,0.005,,
2.524,-0.005,,
2.526,0.09,,
2.528,0.145,,
2.53,0.15,,
2.532,0.2,,
2.534,0.21,,
2.536,0.11,,
2.538,0.02,,
2.54,0.06,,
2.542,0.065,,
2.544,0.15,,
2.546,0.195,,
2.548,0.305,,
2.55,0.24,,
2.552,0.21,,
2.554,0.135,,
2.556,0.12,,
2.558,0.145,,
2.56,0.13,,
2.562,0.115,,
2.564,0.15,,
2.566,0.27,,
2.568,0.3,,
2.57,0.3,,
2.572,0.275,,
2.574,0.24,,
2.576,0.215,,
2.578,0.115,,
2.58,0.025,,
2.582,0.075,,
2.584,0.12,,
2.586,0.105,,
2.588,0.215,,
2.59,0.22,,
2.592,0.145,,
2.594,0.145,,
2.596,0.165,,
2.598,0.05,,
2.6,-0.01,,
2.602,0.025,,
2.604,0.005,,
2.606,0.075,,
2.608,0.045,,
2.61,0,,
2.612,0.065,,
2.614,-0.015,,
2.616,-0.06,,
2.618,-0.185,,
2.62,-0.185,,
2.622,0,,
2.624,0.07,,
2.626,0.105,,
2.628,0.025,,
2.63,0.025,,
2.632,-0.045,,
2.634,-0.055,,
2.636,0,,
2.638,-0.1,,
2.64,-0.14,,
2.642,-0.09,,
2.644,-0.11,,
2.646,-0.08,,
2.648,0,,
2.65,-0.04,,
2.652,-0.105,,
2.654,-0.15,,
2.656,-0.12,,
2.658,-0.13,,
2.66,-0.175,,
2.662,-0.13,,
2.664,-0.095,,
2.666,-0.125,,
2.668,-0.18,,
2.67,-0.055,,
2.672,0.09,,
2.674,-0.015,,
2.676,-0.125,,
2.678,-0.165,,
2.68,-0.175,,
2.682,-0.09,,
2.684,-0.23,,
2.686,-0.11,,
2.688,0.02,,
2.69,0.005,,
2.692,0.005,,
2.694,-0.03,,
2.696,-0.15,,
2.698,-0.145,,
2.7,-0.16,,
2.702,-0.195,,
2.704,-0.165,,
2.706,-0.04,,
2.708,0.04,,
2.71,-0.025,,
2.712,-0.06,,
2.714,-0.015,,
2.716,-0.115,,
2.718,-0.135,,
2.72,-0.155,,
2.722,-0.05,,
2.724,-0.03,,
2.726,-0.08,,
2.728,-0.14,,
2.73,-0.09,,
2.732,-0.005,,
2.734,-0.055,,
2.736,-0.145,,
2.738,-0.155,,
2.74,-0.16,,
2.742,-0.105,,
2.744,-0.03,,
2.746,-0.02,,
2.748,0.005,,
2.75,-0.005,,
2.752,-0.015,,
2.754,-0.065,,
2.756,-0.115,,
2.758,-0.085,,
2.76,-0.145,,
2.762,-0.075,,
2.764,-0.075,,
2.766,-0.06,,
2.768,-0.03,,
2.77,0.045,,
2.772,-0.025,,
2.774,-0.095,,
2.776,-0.065,,
2.778,-0.045,,
2.78,-0.095,,
2.782,0.005,,
2.784,-0.09,,
2.786,-0.09,,
2.788,-0.005,,
2.79,0.02,,
2.792,-0.07,,
2.794,-0.11,,
2.796,-0.12,,
2.798,-0.155,,
2.8,-0.135,,
2.802,-0.14,,
2.804,-0.075,,
2.806,-0.005,,
2.808,-0.025,,
2.81,-0.055,,
2.812,-0.015,,
2.814,-0.03,,
2.816,-0.11,,
2.818,-0.125,,
2.82,-0.085,,
2.822,-0.13,,
2.824,-0.105,,
2.826,-0.01,,
2.828,0.07,,
2.83,0.005,,
2.832,-0.035,,
2.834,-0.095,,
2.836,-0.165,,
2.838,-0.08,,
2.84,-0.185,,
2.842,-0.155,,
2.844,-0.07,,
2.846,-0.035,,
2.848,-0.04,,
2.85,-0.02,,
2.852,-0.025,,
2.854,-0.09,,
2.856,-0.2,,
2.858,-0.095,,
2.86,-0.09,,
2.862,-0.085,,
2.864,-0.02,,
2.866,-0.01,,
2.868,-0.045,,
2.87,-0.055,,
2.872,-0.07,,
2.874,-0.12,,
2.876,-0.15,,
2.878,-0.21,,
2.88,-0.21,,
2.882,0,,
2.884,-0.005,,
2.886,-0.015,,
2.888,-0.035,,
2.89,0,,
2.892,-0.03,,
2.894,-0.13,,
2.896,-0.165,,
2.898,-0.185,,
2.9,-0.145,,
2.902,-0.1,,
2.904,-0.145,,
2.906,-0.165,,
2.908,-0.125,,
2.91,0.06,,
2.912,0.02,,
2.914,-0.055,,
2.916,-0.125,,
2.918,-0.11,,
2.92,-0.145,,
2.922,-0.14,,
2.924,-0.095,,
2.926,-0.025,,
2.928,-0.01,,
2.93,-0.02,,
2.932,-0.105,,
2.934,-0.145,,
2.936,-0.11,,
2.938,-0.125,,
2.94,-0.08,,
2.942,-0.02,,
2.944,0.035,,
2.946,0.005,,
2.948,-0.05,,
2.95,-0.03,,
2.952,-0.095,,
2.954,-0.07,,
2.956,-0.09,,
2.958,-0.24,,
2.96,-0.17,,
2.962,-0.045,,
2.964,-0.01,,
2.966,-0.01,,
2.968,-0.02,,
2.97,-0.02,,
2.972,-0.03,,
2.974,-0.095,,
2.976,-0.12,,
2.978,-0.12,,
2.98,-0.105,,
2.982,-0.105,,
2.984,0.01,,
2.986,0.065,,
2.988,0.085,,
2.99,0.05,,
2.992,-0.005,,
2.994,-0.09,,
2.996,-0.135,,
2.998,-0.035,,
3,-0.005,,
