Time,Data
0.0,0.026125105981475688
0.002,0.02134007790802817
0.004,0.011155838741220137
0.006,0.0006047176897045249
0.008,-0.005896171221251415
0.01,-0.005567608748391272
0.012,0.0038988239013938355
0.014,0.018402749408339622
0.016,0.032772505333325284
0.018,0.04027997642964211
0.02,0.03878184390771094
0.022,0.0246843132469129
0.024,0.0029784134177472305
0.026,-0.023067577606954617
0.028,-0.0454673746779588
0.03,-0.05975682017621523
0.032,-0.06407397481784653
0.034,-0.060284778875940484
0.036,-0.05171079106769558
0.038,-0.045541410071560186
0.04,-0.04551538927457079
0.042,-0.052742886732837474
0.044,-0.06749725767574516
0.046,-0.08444705306632787
0.048,-0.09825633918612646
0.05,-0.10396041086033209
0.052,-0.10122327171184015
0.054,-0.0896197905575518
0.056,-0.0754484167950577
0.058,-0.0631342308118382
0.06,-0.05881744633261758
0.062,-0.06403532833244188
0.064,-0.07837536691092353
0.066,-0.0956139583427801
0.068,-0.11029436184996078
0.07,-0.11615248399707241
0.072,-0.11247626423554968
0.074,-0.1005073155514705
0.076,-0.0843541176789195
0.078,-0.0704481898934279
0.08,-0.06312530828220012
0.082,-0.06624425535859099
0.084,-0.07774068593288018
0.086,-0.09265945744214539
0.088,-0.10564986616922492
0.09,-0.11035660572909084
0.092,-0.10580353054312672
0.094,-0.09287360972632983
0.096,-0.07633296543083963
0.098,-0.06439783543407743
0.1,-0.06239154925453788
0.102,-0.07337729497265406
0.104,-0.09465525739205491
0.106,-0.1206810616439478
0.108,-0.14442402264654924
0.11,-0.15564306935034064
0.112,-0.14921892569439021
0.114,-0.12066884507616842
0.116,-0.07228606745727291
0.118,-0.0058677784966078275
0.12,0.07247571226588617
0.122,0.15960030168725262
0.124,0.2508436543849112
0.126,0.34422216184811283
0.128,0.43625522951597073
0.13,0.5238761998165758
0.132,0.6012227590588695
0.134,0.664131495087392
0.136,0.7028846214832086
0.138,0.7082806586526077
0.14,0.6706066608453425
0.142,0.5827622703125409
0.144,0.44774430063176324
0.146,0.2769543614377237
0.148,0.08824040331424003
0.15,-0.09394524535844774
0.152,-0.24556983158535317
0.154,-0.35247346868443097
0.156,-0.41072837328327894
0.158,-0.4267982472303138
0.16,-0.4168381720525115
0.162,-0.39378394335902933
0.164,-0.37094010481637113
0.166,-0.3535725817643782
0.168,-0.3406274860947868
0.17,-0.32927969352331943
0.172,-0.31471852531758693
0.174,-0.2945088445877657
0.176,-0.26904235454231273
0.178,-0.2399429184759556
0.18,-0.2096771824585459
0.182,-0.18290399033371746
0.184,-0.159173135802489
0.186,-0.1404350043820565
0.188,-0.12451048894209289
0.19,-0.11131554266292962
0.192,-0.10036820843761235
0.194,-0.09102167549940335
0.196,-0.0839881986648819
0.198,-0.07799292932465728
0.2,-0.07371774329916021
0.202,-0.07244452429972616
0.204,-0.07289794577430148
0.206,-0.0746940600334271
0.208,-0.07556536021196304
0.21,-0.0742470762438859
0.212,-0.07067854750316682
0.214,-0.06507770111375946
0.216,-0.05651337619396024
0.218,-0.04879716475302155
0.22,-0.04276645980494083
0.222,-0.03924172955565653
0.224,-0.0390408945705243
0.226,-0.040393108743305574
0.228,-0.04393570783571025
0.23,-0.04626431725217514
0.232,-0.04681533590652155
0.234,-0.04375740336710136
0.236,-0.03958412842307693
0.238,-0.03522126583767539
0.24,-0.030639068908663858
0.242,-0.027129976438666305
0.244,-0.024515766547671403
0.246,-0.023555992376578922
0.248,-0.024745046123794315
0.25,-0.02554350669912949
0.252,-0.026941957536422124
0.254,-0.027151591056813203
0.256,-0.027186728038070228
0.258,-0.02515399340204196
0.26,-0.023169459060211343
0.262,-0.019950121615249575
0.264,-0.01722831591843681
0.266,-0.016186243748823444
0.268,-0.015091089912660298
0.27,-0.016238700045542166
0.272,-0.016211433698534145
0.274,-0.016356791785060113
0.276,-0.014327800422202917
0.278,-0.010512211333510626
0.28,-0.005217353711665425
0.282,0.002442989876174935
0.284,0.007919128621530542
0.286,0.012732771086813017
0.288,0.0139584523241762
0.29,0.012525104364222064
0.292,0.009240532814982397
0.294,0.005529285182250369
0.296,0.0019662706545202375
0.298,0.0027557254432298145
0.3,0.005325707720636172
0.302,0.011174199871731006
0.304,0.018023255255851835
0.306,0.024236823330096687
0.308,0.028368416835866363
0.31,0.02965699103141933
0.312,0.028301177338108986
0.314,0.02641197195212466
0.316,0.02465078604522255
0.318,0.024668300917463602
0.32,0.027532349240657554
0.322,0.03334318456751606
0.324,0.04117578398855539
0.326,0.048378991055740755
0.328,0.056136979673270596
0.33,0.06110310813788203
0.332,0.06388470950753435
0.334,0.06520334214022812
0.336,0.06666491889404348
0.338,0.07021091263561702
0.34,0.07443743643506466
0.342,0.08202127069746565
0.344,0.0924600923368151
0.346,0.10322714775253011
0.348,0.1132947291788089
0.35,0.12084752662442029
0.352,0.1259346222344005
0.354,0.12782522498283955
0.356,0.1299345135315379
0.358,0.1323376240723013
0.36,0.137038268683088
0.362,0.14625001030178889
0.364,0.15894858886063787
0.366,0.17286091463553083
0.368,0.18690212730551317
0.37,0.19891102295330704
0.372,0.20742423778783164
0.374,0.21121142390032444
0.376,0.2123753416180448
0.378,0.21297444126876608
0.38,0.21529678102557237
0.382,0.22004149604699388
0.384,0.22870091545353027
0.386,0.2393682374879022
0.388,0.25204555230720704
0.39,0.26234794628688135
0.392,0.268355561440896
0.394,0.2693090877352401
0.396,0.264896650355343
0.398,0.2570238855711271
0.4,0.2491435420115131
0.402,0.24438029633361397
0.404,0.24276300097316306
0.406,0.24484175531051905
0.408,0.2498321827017659
0.41,0.25224143259165016
0.412,0.2497566109124475
0.414,0.24107924084477744
0.416,0.2264048356504586
0.418,0.20737057509427628
0.42,0.18648324096238525
0.422,0.16822679802399412
0.424,0.1541669321886754
0.426,0.14437512556959478
0.428,0.1373840327899321
0.43,0.12969731092657444
0.432,0.11967747354347448
0.434,0.10649653254524444
0.436,0.08980707980447554
0.438,0.06988748651349663
0.44,0.051201286532808386
0.442,0.03452166979862557
0.444,0.022931556867102763
0.446,0.017059460223158584
0.448,0.013831481295618828
0.45,0.013837106673909784
0.452,0.012185408060151264
0.454,0.007548313581985208
0.456,-0.0009851925023935126
0.458,-0.012557452523207516
0.46,-0.023828908312116558
0.462,-0.03480889499299003
0.464,-0.04093630863901922
0.466,-0.04301999070556484
0.468,-0.0396933540553499
0.47,-0.03420941998884359
0.472,-0.028640649533451547
0.474,-0.026766815604016322
0.476,-0.031053165941332447
0.478,-0.03909479132744052
0.48,-0.0497383998355336
0.482,-0.06084752786820803
0.484,-0.06744022612836208
0.486,-0.06878679382291253
0.488,-0.06306305172502435
0.49,-0.0543117555717181
0.492,-0.04571579788338685
0.494,-0.03944081520412784
0.496,-0.03746789550060934
0.498,-0.04184733745584814
0.5,-0.04865538362096972
0.502,-0.05568000518152805
0.504,-0.061592213599506125
0.506,-0.0621758370766643
0.508,-0.058160813938242864
0.51,-0.051345709853695236
0.512,-0.04295472806135672
0.514,-0.03745819407505242
0.516,-0.036288051300013606
0.518,-0.039924589096216025
0.52,-0.04669846679651997
0.522,-0.054389898548804855
0.524,-0.06141073591464088
0.526,-0.06413532364859705
0.528,-0.06188561216038032
0.53,-0.05619970695122663
0.532,-0.04827678471642225
0.534,-0.04079799719929738
0.536,-0.03755819439377329
0.538,-0.040418066568102005
0.54,-0.0469708928332468
0.542,-0.05605387542496829
0.544,-0.06291878000083784
0.546,-0.06562822129682877
0.548,-0.061156331671848585
0.55,-0.05277997524377616
0.552,-0.04261023844826686
0.554,-0.03443563016787695
0.556,-0.03230760436339608
0.558,-0.036397730290386406
0.56,-0.045555995715176746
0.562,-0.05573791019349878
0.564,-0.0641421645359063
0.566,-0.06763315862381399
0.568,-0.06391476107161652
0.57,-0.05601440153815512
0.572,-0.04589554450736266
0.574,-0.0373443858656032
0.576,-0.032549655750785667
0.578,-0.034909604996020506
0.58,-0.04151407328850108
0.582,-0.05149459216825694
0.584,-0.06010820145911582
0.586,-0.06314478176191084
0.588,-0.06112734198671008
0.59,-0.05385490636198534
0.592,-0.04508744226736419
0.594,-0.03749657549320673
0.596,-0.03528172033208619
0.598,-0.039974659719589106
0.6,-0.049880775075716796
0.602,-0.06236163357364236
0.604,-0.07184478609309639
0.606,-0.0761736028718116
0.608,-0.07378566428160788
0.61,-0.06527829328412486
0.612,-0.05415583580729337
0.614,-0.04486420940769267
0.616,-0.04048555660392321
0.618,-0.042588924320980194
0.62,-0.049667003872953926
0.622,-0.05836159358202391
0.624,-0.06637994737527403
0.626,-0.07074538512805686
0.628,-0.06890575859787314
0.63,-0.062285619587621244
0.632,-0.05408548255819517
0.634,-0.04741921960803095
0.636,-0.04512813694765935
0.638,-0.04672475990957106
0.64,-0.05286023901143824
0.642,-0.061502749683021815
0.644,-0.06774184319205115
0.646,-0.07090011742671071
0.648,-0.06852629747651723
0.65,-0.06290022268820526
0.652,-0.053874598562736534
0.654,-0.04713326146016305
0.656,-0.04316285664579377
0.658,-0.04433314584333144
0.66,-0.050427107753829824
0.662,-0.05878097060641531
0.664,-0.06595914166176073
0.666,-0.07069063619292903
0.668,-0.0717058656115506
0.67,-0.06716461126799626
0.672,-0.060532560166239605
0.674,-0.053977173932988676
0.676,-0.048531066769785566
0.678,-0.04634680263556644
0.68,-0.04831696460121154
0.682,-0.05418238066690957
0.684,-0.06006169080755025
0.686,-0.06618095202973222
0.688,-0.06951949671833033
0.69,-0.06913648800231131
0.692,-0.06707693838679468
0.694,-0.06192021200635193
0.696,-0.058163874159820834
0.698,-0.054683939913199656
0.7,-0.05446618991454483
0.702,-0.05568655776065465
0.704,-0.05808134935650931
0.706,-0.060444336433495956
0.708,-0.062054697718030405
0.71,-0.060884209008936346
0.712,-0.05853014034788585
0.714,-0.053929189348899724
0.716,-0.048984155279841
0.718,-0.04425240243296572
0.72,-0.04080289153526104
0.722,-0.03726997915668517
0.724,-0.03505283272010521
0.726,-0.034561219469993715
0.728,-0.03440719000229648
0.73,-0.03448200210092811
0.732,-0.03491594982126196
0.734,-0.0349676819063629
0.736,-0.033908735549898816
0.738,-0.03195398505708906
0.74,-0.029251686962475952
0.742,-0.023909422179658607
0.744,-0.0180144220781577
0.746,-0.01161694427767884
0.748,-0.005676592912526658
0.75,-5.261346138950555e-06
0.752,0.003743744657589281
0.754,0.007004557390664992
0.756,0.008149309275413064
0.758,0.010311301369715928
0.76,0.013261741364548229
0.762,0.016414959067078287
0.764,0.021991608481078246
0.766,0.02830058038869406
0.768,0.03403774246655643
0.77,0.0374737895106959
0.772,0.03943176981825709
0.774,0.038031836133124955
0.776,0.0342782690035835
0.778,0.03064120877001244
0.78,0.025806590839197393
0.782,0.01971712599321704
0.784,0.013918971963532529
0.786,0.005103291725008231
0.788,-0.005359431447112628
0.79,-0.017110184914568345
0.792,-0.030862185712172623
0.794,-0.04283769868138805
0.796,-0.05243463095070945
0.798,-0.05787236100557541
0.8,-0.060556393903061424
0.802,-0.060996588987824056
0.804,-0.06128215056404608
0.806,-0.06229458789601079
0.808,-0.06595589974158259
0.81,-0.07081272454530788
0.812,-0.07614026166614335
0.814,-0.07955281483680463
0.816,-0.07990566875281851
0.818,-0.07814643506389722
0.82,-0.07477737124530695
0.822,-0.07072833374000624
0.824,-0.06866407497446565
0.826,-0.06897412143131756
0.828,-0.07182920717893718
0.83,-0.07667760275422075
0.832,-0.08139604768148717
0.834,-0.08606051221367784
0.836,-0.08805703580521163
0.838,-0.08710943064374133
0.84,-0.08481888135882545
0.842,-0.08048863721295868
0.844,-0.0762800192263756
0.846,-0.07400927810801816
0.848,-0.07404452399535838
0.85,-0.07573584387862257
0.852,-0.07861515536598299
0.854,-0.08230788404458995
0.856,-0.0838191737171699
0.858,-0.08470295716762513
0.86,-0.08465633746796344
0.862,-0.08629537874480835
0.864,-0.09118199316470864
0.866,-0.10046465085662892
0.868,-0.11165317625187443
0.87,-0.12300570938882092
0.872,-0.128776684212165
0.874,-0.12424445243868006
0.876,-0.10413298927210297
0.878,-0.06388295785524283
0.88,-0.0032775843024350883
0.882,0.07782808093552582
0.884,0.17458173282527112
0.886,0.28060667694554714
0.888,0.3883081763671496
0.89,0.4905064349156037
0.892,0.5781445465672255
0.894,0.6491751394466156
0.896,0.7000481090498747
0.898,0.725379775026897
0.9,0.7193183580547607
0.902,0.6748554467790824
0.904,0.5849694408297392
0.906,0.4501650553668046
0.908,0.2778177646799015
0.91,0.08580451662755763
0.912,-0.10382481019089757
0.914,-0.26601176207477134
0.916,-0.38524358349879134
0.918,-0.45290035152778874
0.92,-0.47287680547469774
0.922,-0.46023950074366704
0.924,-0.42905111670422924
0.926,-0.3938140842003042
0.928,-0.36513158970941595
0.93,-0.3440993894399399
0.932,-0.3306597771222348
0.934,-0.3197787165489958
0.936,-0.3069915512253733
0.938,-0.2877232029475896
0.94,-0.2618783084042746
0.942,-0.22947968756361387
0.944,-0.19449989721957298
0.946,-0.16133892855849497
0.948,-0.1315332072887011
0.95,-0.11018753071205098
0.952,-0.09534027188262463
0.954,-0.08711287937431342
0.956,-0.08319615733741159
0.958,-0.08110200437604834
0.96,-0.07770577875960377
0.962,-0.07288159477375229
0.964,-0.06738206219081422
0.966,-0.06340040267472533
0.968,-0.06236761828020725
0.97,-0.061439036983357356
0.972,-0.061854120905693116
0.974,-0.06201726992206734
0.976,-0.05887528694345111
0.978,-0.052062142645640165
0.98,-0.04438071971582272
0.982,-0.03545244963775456
0.984,-0.028685998587801374
0.986,-0.024971780666833
0.988,-0.024603867306673403
0.99,-0.02683234437993333
0.992,-0.03019959948989212
0.994,-0.03451241137414768
0.996,-0.03606446621974818
0.998,-0.03663977748533539
1.0,-0.03492423231364683
1.002,-0.031188014190710923
1.004,-0.0273820631653503
1.006,-0.025008850897463096
1.008,-0.023200965400140952
1.01,-0.023347278978809297
1.012,-0.024387260219423685
1.014,-0.025637161475421843
1.016,-0.024816400441443252
1.018,-0.0228803452853383
1.02,-0.018355167351464943
1.022,-0.01407118754620961
1.024,-0.009422212047486972
1.026,-0.006450685277902969
1.028,-0.005109413648986289
1.03,-0.005966633441417756
1.032,-0.007440859660129107
1.034,-0.008448593468176798
1.036,-0.008199889385016888
1.038,-0.006837022486953538
1.04,-0.0026888496754786323
1.042,0.0009284178290622849
1.044,0.004259368510023984
1.046,0.006778955716035296
1.048,0.007727259187401085
1.05,0.006322880631700671
1.052,0.005602743887911939
1.054,0.005979161059615427
1.056,0.006701900085815047
1.058,0.010430803624930401
1.06,0.015063535775721844
1.062,0.020853834387948036
1.064,0.025744571892095947
1.066,0.02976957467786803
1.068,0.0323709827530629
1.07,0.034530364571242554
1.072,0.03569477524712115
1.074,0.03655713379901032
1.076,0.038793798221204476
1.078,0.041859029152877564
1.08,0.04589486655333737
1.082,0.050759017919222965
1.084,0.05612862837564155
1.086,0.06062126622403581
1.088,0.06388767264544688
1.09,0.06566114767813831
1.092,0.06677678419715308
1.094,0.06818476463299573
1.096,0.07097159726236671
1.098,0.07438028430230609
1.1,0.07980134541339258
1.102,0.0857061118576332
1.104,0.09351638564985178
1.106,0.10144147542258582
1.108,0.1103457995000126
1.11,0.12071782426775052
1.112,0.13178383903003413
1.114,0.14075405963975904
1.116,0.1491255484106506
1.118,0.1549253480301225
1.12,0.15878119264236865
1.122,0.16176184095302354
1.124,0.16501775644424185
1.126,0.17034127085630457
1.128,0.17881498580359276
1.13,0.18870179679537566
1.132,0.19864849212434627
1.134,0.2081544860408428
1.136,0.21514428926139978
1.138,0.2194245454891264
1.14,0.22183290800486613
1.142,0.22299324761991376
1.144,0.2267425398258026
1.146,0.23243125004229195
1.148,0.24136460793476783
1.15,0.2526151637702065
1.152,0.2633052738180657
1.154,0.2712783695440536
1.156,0.2769190685313173
1.158,0.2778091529089537
1.16,0.2749532816845787
1.162,0.2714630413100674
1.164,0.267794875770085
1.166,0.26581722490724025
1.168,0.26606237819840134
1.17,0.26646275855041596
1.172,0.26569542188953504
1.174,0.26002651282492806
1.176,0.2503481070474004
1.178,0.23501283418157648
1.18,0.21613535884340587
1.182,0.19722487124220756
1.184,0.18026763208714178
1.186,0.1675958602203149
1.188,0.15897288508126634
1.19,0.15425412770383573
1.192,0.14977152372865707
1.194,0.14231372243759693
1.196,0.12934091194424222
1.198,0.11097312696232164
1.2,0.08836657164151449
1.202,0.06531885265612296
1.204,0.046237045533548
1.206,0.03285045622971851
1.208,0.027156079249209264
1.21,0.02600523679026467
1.212,0.027501739304711264
1.214,0.027073917951653773
1.216,0.02182234680809701
1.218,0.010632984196003507
1.22,-0.004372755050336238
1.222,-0.021232325410725502
1.224,-0.035242057236637724
1.226,-0.04435292359091068
1.228,-0.04533429297617097
1.23,-0.041260292626729284
1.232,-0.034126713543104724
1.234,-0.02773549676651943
1.236,-0.02626374424785469
1.238,-0.029057639207093797
1.24,-0.038110342058961834
1.242,-0.049426407417294885
1.244,-0.05914014941325886
1.246,-0.06496877922736448
1.248,-0.06445228917024598
1.25,-0.05751057918685477
1.252,-0.04710509446704922
1.254,-0.03713029400044374
1.256,-0.031951554718781625
1.258,-0.03314018370058589
1.26,-0.040882195163211295
1.262,-0.052283436238651435
1.264,-0.06245573103367611
1.266,-0.06797476623200614
1.268,-0.06816136436449047
1.27,-0.06270563018469737
1.272,-0.05340192379617627
1.274,-0.04409736271533207
1.276,-0.03925115510117735
1.278,-0.039645915277006345
1.28,-0.04473205307486927
1.282,-0.05284628312080487
1.284,-0.06121667430390968
1.286,-0.0663733869672388
1.288,-0.06543590026352311
1.29,-0.05979830528862121
1.292,-0.050963167755663286
1.294,-0.04259411473181003
1.296,-0.03714730434269065
1.298,-0.038594455778251685
1.3,-0.04571001190413726
1.302,-0.05617973006310374
1.304,-0.06548003861206876
1.306,-0.07219264828031223
1.308,-0.07126259470770806
1.31,-0.0647360958444606
1.312,-0.05471389413843418
1.314,-0.043549465185353894
1.316,-0.03759934551439802
1.318,-0.036992495817108985
1.32,-0.04287035829604767
1.322,-0.0523680823021928
1.324,-0.06233028907236318
1.326,-0.06948559622369646
1.328,-0.07064162312597004
1.33,-0.06646365507262511
1.332,-0.05756137348161918
1.334,-0.048866409047399105
1.336,-0.043542250316710315
1.338,-0.04183278285785641
1.34,-0.04626870785262849
1.342,-0.05351138355092473
1.344,-0.060875942477140836
1.346,-0.06632868969528576
1.348,-0.06758747680329794
1.35,-0.06392595177929121
1.352,-0.05739950571977749
1.354,-0.04842612357546477
1.356,-0.041888822667086226
1.358,-0.039093480445175945
1.36,-0.04195860526358124
1.362,-0.0477204002969712
1.364,-0.05624475696074529
1.366,-0.06381903167022897
1.368,-0.0681293830897681
1.37,-0.06807186437386362
1.372,-0.06311436158901877
1.374,-0.05709343499704444
1.376,-0.05053301311154895
1.378,-0.04573799032836905
1.38,-0.04398779337668972
1.382,-0.04611062771637247
1.384,-0.05057767098742175
1.386,-0.05407053613724942
1.388,-0.05731122098275275
1.39,-0.0578579871603029
1.392,-0.055590547692186514
1.394,-0.05272340205590515
1.396,-0.04935423623706511
1.398,-0.04871531681522611
1.4,-0.049394396409581806
1.402,-0.05279564287329965
1.404,-0.0590217779746111
1.406,-0.06420916770432249
1.408,-0.06919086199973494
1.41,-0.07025239051519643
1.412,-0.06871803952844877
1.414,-0.06316869461747528
1.416,-0.05622252597330543
1.418,-0.049961032246671026
1.42,-0.04620328460423341
1.422,-0.045880185834517154
1.424,-0.04972268981248838
1.426,-0.05436744571194209
1.428,-0.059838890463695615
1.43,-0.06323806322608784
1.432,-0.06339908248351364
1.434,-0.060287387183861244
1.436,-0.05500431205406345
1.438,-0.04939887479216943
1.44,-0.04642289184240559
1.442,-0.045453382140594786
1.444,-0.04881669127511729
1.446,-0.05367845224016657
1.448,-0.05933668815080068
1.45,-0.06281577038118345
1.452,-0.06355474012855772
1.454,-0.06095074892501637
1.456,-0.054568558208400515
1.458,-0.04694297622195522
1.46,-0.04004274323131786
1.462,-0.03658252807034122
1.464,-0.03842311433757756
1.466,-0.0432696205210126
1.468,-0.051773904025436454
1.47,-0.05900608400140998
1.472,-0.06313067413057463
1.474,-0.06205059661582861
1.476,-0.0557929717656088
1.478,-0.046500679847126525
1.48,-0.036031916835063
1.482,-0.02830784213521078
1.484,-0.023637364418764156
1.486,-0.023256604323644327
1.488,-0.025245368352158907
1.49,-0.02885038506284883
1.492,-0.031101771015266545
1.494,-0.031505786307883914
1.496,-0.027569977638533676
1.498,-0.02197586978377799
1.5,-0.016338614205861038
1.502,-0.009638542672318194
1.504,-0.004525008635267013
1.506,-0.0017375378507993682
1.508,0.001152450678355981
1.51,0.0035893075557927845
1.512,0.006524713287110678
1.514,0.011732546139682203
1.516,0.017187851262621928
1.518,0.022727305287512337
1.52,0.02910904905360977
1.522,0.033449455703839864
1.524,0.03688271018617635
1.526,0.03821201166224068
1.528,0.038325313231499646
1.53,0.03723175665333407
1.532,0.03570774254089917
1.534,0.035677327667392074
1.536,0.03654319944063401
1.538,0.037700464916594824
1.54,0.040400995018703346
1.542,0.04201402114745843
1.544,0.04059163873018398
1.546,0.034543120462654266
1.548,0.023185231097773925
1.55,0.007979173309033359
1.552,-0.010627020999196091
1.554,-0.02769627299569757
1.556,-0.041469489870391445
1.558,-0.05097303487994098
1.56,-0.055358081059082055
1.562,-0.05585464423712058
1.564,-0.05535444959877088
1.566,-0.055763624212750655
1.568,-0.058345541716103365
1.57,-0.06227895109788523
1.572,-0.06858479975494645
1.574,-0.07345067233350663
1.576,-0.07684620495660759
1.578,-0.07822199993982223
1.58,-0.07705307024503531
1.582,-0.07603737287369006
1.584,-0.07387505053856074
1.586,-0.07269664920413363
1.588,-0.07333075475050595
1.59,-0.07466100718330533
1.592,-0.07829741138878527
1.594,-0.0806836547760607
1.596,-0.08261409585755414
1.598,-0.08399095632480026
1.6,-0.08256370795972208
1.602,-0.08039119736203099
1.604,-0.07785615189728295
1.606,-0.07621343004305149
1.608,-0.07581684956876471
1.61,-0.07728765493485958
1.612,-0.07991728527201394
1.614,-0.08252417410370996
1.616,-0.08383066442833029
1.618,-0.08324316560881183
1.62,-0.08177046845134245
1.622,-0.07875608066820194
1.624,-0.07815536381539871
1.626,-0.07924207670748727
1.628,-0.0848302877236557
1.63,-0.09527572610670432
1.632,-0.10861006887198099
1.634,-0.12212634908300911
1.636,-0.13058141243345528
1.638,-0.13096290978011385
1.64,-0.11656078195358716
1.642,-0.0859628789902956
1.644,-0.03560872675057483
1.646,0.03431556818714078
1.648,0.12062430702272488
1.65,0.21826802525552838
1.652,0.32145380051582473
1.654,0.42333806557976406
1.656,0.5170239729629322
1.658,0.5968431134996317
1.66,0.6591647731291996
1.662,0.6961578766927796
1.664,0.7019611320291079
1.666,0.6705794383834485
1.668,0.5945650512842537
1.67,0.4722529670701078
1.672,0.31110811175481223
1.674,0.12468835969976522
1.676,-0.0661432626034029
1.678,-0.2358545947018817
1.68,-0.3675133358044338
1.682,-0.4492331459055628
1.684,-0.48026409398769715
1.686,-0.4713144431566507
1.688,-0.43796734729690345
1.69,-0.3963899315544939
1.692,-0.35880001026236824
1.694,-0.332255747012775
1.696,-0.31822475117884624
1.698,-0.31310763913123807
1.7,-0.3085386625149921
1.702,-0.30099304492388324
1.704,-0.28510794440357107
1.706,-0.26022058206170684
1.708,-0.22791083564218367
1.71,-0.1917035266297441
1.712,-0.15640141367351165
1.714,-0.12766451083891975
1.716,-0.10736803711236896
1.718,-0.09498793797643856
1.72,-0.0888827870869291
1.722,-0.08600497567995882
1.724,-0.08340869610473267
1.726,-0.07699123914130455
1.728,-0.06818434351533938
1.73,-0.057701130918553944
1.732,-0.04879714981113484
1.734,-0.04568888013520772
1.736,-0.046719180159193185
1.738,-0.05258487710743903
1.74,-0.05954798734570882
1.742,-0.06518528308561317
1.744,-0.06402829820628696
1.746,-0.05748390330524979
1.748,-0.045691120870615
1.75,-0.03236459048345197
1.752,-0.02205208644122815
1.754,-0.017452034567951306
1.756,-0.020415302967533355
1.758,-0.028001514301667668
1.76,-0.0365683733695324
1.762,-0.04248904386858163
1.764,-0.04286023870547515
1.766,-0.037568626374563235
1.768,-0.027322951930103017
1.77,-0.015643969295437894
1.772,-0.007190298092174914
1.774,-0.004042225496851661
1.776,-0.007577470826354109
1.778,-0.017349993528644983
1.78,-0.027009364973982028
1.782,-0.03491366793703132
1.784,-0.035835892793566304
1.786,-0.030134833676768946
1.788,-0.019965059856411855
1.79,-0.006458916613066527
1.792,0.003807464716375727
1.794,0.009492666961269363
1.796,0.007695717244044444
1.798,0.0012536206088020797
1.8,-0.006965484600534685
1.802,-0.014500310765602223
1.804,-0.015928977949984758
1.806,-0.01109724359476151
1.808,-0.0005014704536908678
1.81,0.011298303473520802
1.812,0.022004037000496496
1.814,0.02814853157776585
1.816,0.026333476600411215
1.818,0.019694838101920995
1.82,0.010443465294428068
1.822,0.002667032487544198
1.824,-0.00015783847496987405
1.826,0.003599431072506683
1.828,0.014179430693525388
1.83,0.028758237510303666
1.832,0.042503765768941146
1.834,0.05196615660530173
1.836,0.05429682415311885
1.838,0.05086629090580901
1.84,0.04307767623325974
1.842,0.034464751990384804
1.844,0.02941460315601637
1.846,0.02997726868141578
1.848,0.03717943338515546
1.85,0.04906833235827608
1.852,0.061448166088423566
1.854,0.07202999259811152
1.856,0.07958097124576012
1.858,0.08167304240324705
1.86,0.08178380736454349
1.862,0.07973503754127756
1.864,0.07968326504477577
1.866,0.08302360568646518
1.868,0.09058542058858966
1.87,0.1023859801256186
1.872,0.1140095004101215
1.874,0.12546457532982783
1.876,0.13421596977161537
1.878,0.13803737249612175
1.88,0.1384023322446164
1.882,0.13729322696417523
1.884,0.13750560196279904
1.886,0.14069129294843583
1.888,0.1494649473313504
1.89,0.16187087594871244
1.892,0.17738259473224696
1.894,0.1934287656525634
1.896,0.20726554991472856
1.898,0.21790277188591975
1.9,0.222775374988148
1.902,0.22393672069632808
1.904,0.22270835959462265
1.906,0.22290075535157527
1.908,0.22486273112199562
1.91,0.23167709321595348
1.912,0.24177530895942737
1.914,0.25410808520744665
1.916,0.2658241838801546
1.918,0.27423691493950697
1.92,0.27775461606200325
1.922,0.2764550013539305
1.924,0.2710960517856581
1.926,0.2655437720803781
1.928,0.26179826112474613
1.93,0.2619453051213312
1.932,0.2663981602498699
1.934,0.27170553506808365
1.936,0.27501250585507914
1.938,0.27503343056851237
1.94,0.2682088358303222
1.942,0.2536402287662398
1.944,0.2344607268389603
1.946,0.21248880108063048
1.948,0.19126467707118824
1.95,0.17579558119474623
1.952,0.16445365223713318
1.954,0.15843137239378347
1.956,0.15297130889780478
1.958,0.14631235227236694
1.96,0.13403067669985957
1.962,0.11629784193332321
1.964,0.09359251302912461
1.966,0.06958758542919005
1.968,0.04722900251317538
1.97,0.030321162306292317
1.972,0.02112588634291148
1.974,0.019492382786993057
1.976,0.02185441936577938
1.978,0.024119198629292064
1.98,0.023142241993521315
1.982,0.015256592157633487
1.984,0.00029038509896635236
1.986,-0.01831729353196485
1.988,-0.03636625589801928
1.99,-0.04941643130293135
1.992,-0.054428977707658796
1.994,-0.05191878052171651
1.996,-0.0431791857528043
1.998,-0.033477289800615456
2.0,-0.026500790350854002
2.002,-0.02662254303779989
2.004,-0.03462742440181935
2.006,-0.04838430711418975
2.008,-0.06360020679877995
2.01,-0.07439067459397962
2.012,-0.07809088638722472
2.014,-0.07263361748372749
2.016,-0.06097360749392543
2.018,-0.04638865620742714
2.02,-0.03590678173073332
2.022,-0.03243905881710603
2.024,-0.03831393117303475
2.026,-0.05076474017522369
2.028,-0.06556950736471552
2.03,-0.07661149809958673
2.032,-0.08178222757057586
2.034,-0.07851661860016318
2.036,-0.06838416455317026
2.038,-0.05651130400773917
2.04,-0.04704762249772882
2.042,-0.043247643185731176
2.044,-0.04788533962407581
2.046,-0.058594760179840624
2.048,-0.07138333593585289
2.05,-0.08212483727959047
2.052,-0.08647197987332145
2.054,-0.08247243555634724
2.056,-0.07128500850546408
2.058,-0.05773190950861724
2.06,-0.04486014116543599
2.062,-0.03905521787338097
2.064,-0.04241486046743542
2.066,-0.05298822104042551
2.068,-0.06715766558510451
2.07,-0.08101028074386257
2.072,-0.08917743816108228
2.074,-0.08745098925375479
2.076,-0.07857580268684515
2.078,-0.06393338563527937
2.08,-0.050249369397229904
2.082,-0.041820472828606556
2.084,-0.041928748791522745
2.086,-0.04803059322816753
2.088,-0.059009143471890506
2.09,-0.07037693441247642
2.092,-0.07596341006545557
2.094,-0.0754502293602118
2.096,-0.06818709917401758
2.098,-0.056001076323498766
2.1,-0.04509349389624299
2.102,-0.0384559300967644
2.104,-0.03740478687427417
2.106,-0.04277435462351366
2.108,-0.0520489075095764
2.11,-0.06235772007845355
2.112,-0.06893891780772693
2.114,-0.06951638603166481
2.116,-0.0640841152571994
2.118,-0.05482884354983646
2.12,-0.04425023010320871
2.122,-0.03583243303163529
2.124,-0.03277330377612023
2.126,-0.036236100548005024
2.128,-0.043376680102852797
2.13,-0.05210241644064957
2.132,-0.05925157780239573
2.134,-0.06174169052785215
2.136,-0.05926869489092823
2.138,-0.05232471035194638
2.14,-0.04456427096264987
2.142,-0.038785822258038824
2.144,-0.036920685740259016
2.146,-0.03939554039173225
2.148,-0.04507546765885945
2.15,-0.05176982313292659
2.152,-0.05707995946821501
2.154,-0.05925967945896418
2.156,-0.05877933734566197
2.158,-0.05541574384138408
2.16,-0.05187540184350706
2.162,-0.04812543828652577
2.164,-0.04569519535186213
2.166,-0.046196447118224244
2.168,-0.0482071645452193
2.17,-0.05251947921734747
2.172,-0.05662433699385941
2.174,-0.05923832961845247
2.176,-0.060689279424322326
2.178,-0.0600519012649735
2.18,-0.059026833776322105
2.182,-0.05664398918538013
2.184,-0.05391479091742109
2.186,-0.0525495202138154
2.188,-0.05180931258489807
2.19,-0.05150339390683016
2.192,-0.053096337005691885
2.194,-0.05387138932804589
2.196,-0.05410272343079262
2.198,-0.0542086176605948
2.2,-0.05187329392048826
2.202,-0.050128246105636376
2.204,-0.046376527762422945
2.206,-0.043337018192083854
2.208,-0.03989320452605376
2.21,-0.03685824725217455
2.212,-0.03570804600445911
2.214,-0.03536837121576172
2.216,-0.036149404704770474
2.218,-0.038887982610880056
2.22,-0.04028842551788418
2.222,-0.04036998411253933
2.224,-0.03886703632883642
2.226,-0.035418919395588666
2.228,-0.02944344561716101
2.23,-0.023698492038115058
2.232,-0.018661170541681864
2.234,-0.014943744747985111
2.236,-0.013977784269984018
2.238,-0.014118432214706546
2.24,-0.01317108886605231
2.242,-0.010176573336870364
2.244,-0.005173513018989896
2.246,0.0033597149561481023
2.248,0.012580994394157406
2.25,0.021889263378325606
2.252,0.027863161300832703
2.254,0.031194089537978996
2.256,0.031252771214765544
2.258,0.029047033764722736
2.26,0.027549782145505384
2.262,0.026619353347433056
2.264,0.028905367956442465
2.266,0.032160568913337836
2.268,0.03524429117935638
2.27,0.034850285154983965
2.272,0.02971340623750133
2.274,0.01785345080232477
2.276,0.0003804028507741902
2.278,-0.01846598463561283
2.28,-0.03708796973139319
2.282,-0.0488483236930319
2.284,-0.05445079168351852
2.286,-0.053856469324023035
2.288,-0.048370027380205
2.29,-0.04383605772064498
2.292,-0.043225062218318185
2.294,-0.04913091803769157
2.296,-0.05875068746167443
2.298,-0.07174891747531482
2.3,-0.08408100417478326
2.302,-0.09148555393544547
2.304,-0.09109314609897924
2.306,-0.08454175616796754
2.308,-0.07416396684374968
2.31,-0.0631559776522969
2.312,-0.05602468233790002
2.314,-0.05488961134229232
2.316,-0.06128200751596759
2.318,-0.07190489271126072
2.32,-0.0854598356750405
2.322,-0.09524224900607181
2.324,-0.0989109419881913
2.326,-0.09576379073299668
2.328,-0.08803076927041129
2.33,-0.07706286561529717
2.332,-0.06771276219158842
2.334,-0.06451222321456115
2.336,-0.06633331591179574
2.338,-0.07404274359293848
2.34,-0.08228631435190045
2.342,-0.08811400006447052
2.344,-0.08983677416059685
2.346,-0.08741613261454753
2.348,-0.08286110958133773
2.35,-0.07848069147085973
2.352,-0.0782710037739924
2.354,-0.08604324160860553
2.356,-0.09899633998564139
2.358,-0.11427069757955548
2.36,-0.12564939807835537
2.362,-0.1281413128287187
2.364,-0.11384949006700784
2.366,-0.08042296228167758
2.368,-0.025549430356587556
2.37,0.048691006062306405
2.372,0.13736250933887903
2.374,0.2365196198911625
2.376,0.3386699867777927
2.378,0.43730989050824504
2.38,0.5293405232015715
2.382,0.6075935674035232
2.384,0.6680253960487673
2.386,0.7052570193521739
2.388,0.711999950252808
2.39,0.6785708441780721
2.392,0.5992890016800035
2.394,0.47322458179234855
2.396,0.30664250792052666
2.398,0.11861039847950706
2.4,-0.06844159240456331
2.402,-0.23202796642345508
2.404,-0.3522822191464753
2.406,-0.4213714350654241
2.408,-0.44413268786887206
2.41,-0.4307115872974744
2.412,-0.3993573568266309
2.414,-0.3638374823500714
2.416,-0.3350651147829725
2.418,-0.31643995153542087
2.42,-0.30712795959695793
2.422,-0.30215363167774967
2.424,-0.2958825943319774
2.426,-0.28434016170870735
2.428,-0.2648870884615023
2.43,-0.23802338964699243
2.432,-0.2064174827547254
2.434,-0.17253856593419606
2.436,-0.14040335801676207
2.438,-0.11289002988882439
2.44,-0.09285023110633879
2.442,-0.07895156249879369
2.444,-0.07191961853536454
2.446,-0.06871564335666239
2.448,-0.0662264631178509
2.45,-0.06423604689957671
2.452,-0.060716606830703373
2.454,-0.05572096441736982
2.456,-0.05128973749853548
2.458,-0.04876402581349944
2.46,-0.048731962282711754
2.462,-0.05060068243368087
2.464,-0.05256257305499246
2.466,-0.05259519087847098
2.468,-0.05113955223638386
2.47,-0.04623269470104267
2.472,-0.03907416170884415
2.474,-0.032206198531219164
2.476,-0.025613491320660146
2.478,-0.02306013085102388
2.48,-0.021881714667206686
2.482,-0.02328069839934439
2.484,-0.023996649939291428
2.486,-0.025101460138245844
2.488,-0.024641176277601127
2.49,-0.02191454438597022
2.492,-0.019313763346613413
2.494,-0.01480492010130651
2.496,-0.011241786671775453
2.498,-0.008750762697235839
2.5,-0.008387196719976897
2.502,-0.010162285591892436
2.504,-0.012412761129903544
2.506,-0.014375607771003975
2.508,-0.015771238366711467
2.51,-0.015206093845920487
2.512,-0.012272721544436545
2.514,-0.007327245412926516
2.516,-0.002027106644020498
2.518,0.0022156767579859147
2.52,0.0036892251159561804
2.522,0.0036019855882221704
2.524,2.793647152473551e-06
2.526,-0.0035694641819651388
2.528,-0.00559222973669968
2.53,-0.006058832164468273
2.532,-0.0038105499038351594
2.534,0.00040705690087474095
2.536,0.006184591002777041
2.538,0.010911605389137585
2.54,0.015313396453123997
2.542,0.015885479784204484
2.544,0.01607823040785148
2.546,0.015162844026307486
2.548,0.014814622328326789
2.55,0.016546762431165728
2.552,0.02118398951420947
2.554,0.027559082039174777
2.556,0.03554539336009167
2.558,0.042425808044731964
2.56,0.04748047667754075
2.562,0.04959366207715156
2.564,0.04866521637273837
2.566,0.04667336021726195
2.568,0.043354343695992656
2.57,0.04260102755351761
2.572,0.04378768022372829
2.574,0.049262522092483635
2.576,0.0571970974373571
2.578,0.06685798338514692
2.58,0.07621423060460003
2.582,0.08366827896812301
2.584,0.08864635837305274
2.586,0.09082838645854249
2.588,0.09192405095292619
2.59,0.09206671129083585
2.592,0.09503974538089807
2.594,0.10161705452018027
2.596,0.11126347903129023
2.598,0.12231260742588454
2.6,0.1335645780604717
2.602,0.14208935533112682
2.604,0.14694085214238434
2.606,0.14851575074021192
2.608,0.14841929650550278
2.61,0.14888223495009864
2.612,0.1519409772024647
2.614,0.1606837262903672
2.616,0.1728435891361027
2.618,0.1868924734620169
2.62,0.20060357453453356
2.622,0.210874937927731
2.624,0.21750800862777386
2.626,0.220650855196578
2.628,0.2207405478989259
2.63,0.22196640190070852
2.632,0.2254551046096307
2.634,0.23248255743756335
2.636,0.2430064435789605
2.638,0.2536922899015903
2.64,0.26442009029105495
2.642,0.2720786487786345
2.644,0.2753484965248257
2.646,0.2741811765163066
2.648,0.27079941718327344
2.65,0.2662242439149114
2.652,0.26251227098080887
2.654,0.25999245994554565
2.656,0.26078739327517775
2.658,0.2607927171929385
2.66,0.2591135329697565
2.662,0.2537852390226265
2.664,0.2445032710001827
2.666,0.23108897652948282
2.668,0.2145242677365182
2.67,0.19755362889107306
2.672,0.18101437209781993
2.674,0.16615343609489022
2.676,0.15418636841428324
2.678,0.1422552023363571
2.68,0.12978701506167736
2.682,0.11610444836460551
2.684,0.10005028943278395
2.686,0.08339208098597098
2.688,0.06786485947294214
2.69,0.05285220949447639
2.692,0.04084189890181721
2.694,0.03087089233397442
2.696,0.023168085340125648
2.698,0.017117925577569547
2.7,0.010540399323017204
2.702,0.005163570145182984
2.704,-0.0019007615399992887
2.706,-0.0088573078729367
2.708,-0.01620425297028803
2.71,-0.023975726273441727
2.712,-0.03213815334728702
2.714,-0.037978212333098116
2.716,-0.04233580421530336
2.718,-0.04460688880633335
2.72,-0.04453633971630071
2.722,-0.04390080800859744
2.724,-0.04321539437138048
2.726,-0.04457569027138906
2.728,-0.04768178365052638
2.73,-0.05201293315810327
2.732,-0.05606380375965618
2.734,-0.05953776387392675
2.736,-0.060422749393331504
2.738,-0.05993412367460227
2.74,-0.058369021770641585
2.742,-0.056951376998192714
2.744,-0.055742482600963
2.746,-0.05565306028016681
2.748,-0.05653937094942986
2.75,-0.05732381115669792
2.752,-0.05906955220247594
2.754,-0.06096389335210547
2.756,-0.06321374968928382
2.758,-0.06590529697416674
2.76,-0.06890406527313735
2.762,-0.06985847168806807
2.764,-0.07132317173593586
2.766,-0.06995913659479103
2.768,-0.0677228637109967
2.77,-0.06495026913468947
2.772,-0.061278307351139455
2.774,-0.0584158852690558
2.776,-0.056846532035002145
2.778,-0.05758647580824782
2.78,-0.05911189118167146
2.782,-0.06250772960653946
2.784,-0.06480002001768757
2.786,-0.0653506814951779
2.788,-0.06415518086296468
2.79,-0.061909106505740316
2.792,-0.05879425367183932
2.794,-0.0580471188746708
2.796,-0.05946783850052645
2.798,-0.0630646807033199
2.8,-0.0669887152995031
2.802,-0.07180659483297469
2.804,-0.0730258462341928
2.806,-0.07167949863359858
2.808,-0.06774059470911388
2.81,-0.061191074402658086
2.812,-0.053697069605641634
2.814,-0.04899655579006062
2.816,-0.04822525448202295
2.818,-0.05044297362094965
2.82,-0.055556619568761706
2.822,-0.060689296656675676
2.824,-0.06487178812630587
2.826,-0.06680066536398942
2.828,-0.06437020325455456
2.83,-0.058761672295133766
2.832,-0.05403782013485612
2.834,-0.05038124640560974
2.836,-0.05025902980475184
2.838,-0.05383450219246644
2.84,-0.05986190084419891
2.842,-0.06612003169251764
2.844,-0.06923412960956302
2.846,-0.06758054541386137
2.848,-0.06192828506034449
2.85,-0.053563627043717456
2.852,-0.044836739362978814
2.854,-0.039290259949630646
2.856,-0.03869434233541542
2.858,-0.04335583638256798
2.86,-0.05097180386244474
2.862,-0.05809419245393244
2.864,-0.06503953441077928
2.866,-0.0679041431945808
2.868,-0.06629917548936752
2.87,-0.061520895595609776
2.872,-0.056082999438953035
2.874,-0.051780353188957795
2.876,-0.048634425810500426
2.878,-0.05011997850255608
2.88,-0.05496984685179962
2.882,-0.05963760781864576
2.884,-0.06424842280619927
2.886,-0.06568140088363628
2.888,-0.062374269094310035
2.89,-0.05754393642197327
2.892,-0.050736438479498
2.894,-0.045873586012089615
2.896,-0.04415493241167558
2.898,-0.047229450470563386
2.9,-0.05395003722404543
2.902,-0.06180388383731842
2.904,-0.0668563408475205
2.906,-0.06985210115344041
2.908,-0.06705874142632251
2.91,-0.061535914287849186
2.912,-0.05573109967836108
2.914,-0.05155697517074499
2.916,-0.05029982923343951
2.918,-0.05376986198066541
2.92,-0.05901034556028116
2.922,-0.06567004940822882
2.924,-0.07089329094530239
2.926,-0.07138911839728138
2.928,-0.06727759551952624
2.93,-0.05939944301628035
2.932,-0.05098032387870352
2.934,-0.04478415725716979
2.936,-0.04107904039528146
2.938,-0.04380433966248649
2.94,-0.0502458542527436
2.942,-0.05833081342565407
2.944,-0.0664211118006581
2.946,-0.07129985483835641
2.948,-0.07098067318394119
2.95,-0.0660434352973571
2.952,-0.058383045170309796
2.954,-0.051478915715196874
2.956,-0.04646794822962802
2.958,-0.045369151609921395
2.96,-0.04974201966747819
2.962,-0.05589182196142323
2.964,-0.06352910740244369
2.966,-0.06862579959553586
2.968,-0.06914632713806192
2.97,-0.06538961956724403
2.972,-0.05883086910662073
2.974,-0.0505403211412937
2.976,-0.0424087633828063
2.978,-0.037470796342644656
2.98,-0.035568482077509164
2.982,-0.035462360986977554
2.984,-0.035328222636454056
2.986,-0.0354402527993354
2.988,-0.03278352382584177
2.99,-0.0283783021936203
2.992,-0.02421547003717519
2.994,-0.01984914541689339
2.996,-0.01781367069968619
2.998,-0.017084743994852818
3.0,-0.017773826061296266
3.002,-0.01814797878100421
3.004,-0.015944141398417114
3.006,-0.012844357308838955
3.008,-0.0059322343347402
3.01,0.0020270023548484215
3.012,0.010564169737245523
3.014,0.01672485667186194
3.016,0.021430438773223873
3.018,0.02284407510234236
3.02,0.021618362611229788
3.022,0.020956499050245152
3.024,0.01949026238246339
3.026,0.02103832815302163
3.028,0.024337932806389826
3.03,0.02883638261675575
3.032,0.03459514013123713
3.034,0.039315246098636354
3.036,0.04245592406459858
3.038,0.042399037996333336
3.04,0.03861187601271179
3.042,0.0317731197841699
3.044,0.021842662575894636
3.046,0.010068403591552163
3.048,-0.002069196488196254
3.05,-0.012967995834302012
3.052,-0.02405498095347121
3.054,-0.03294875976102242
3.056,-0.041592618470863846
3.058,-0.04831204443265953
3.06,-0.054761473091953394
3.062,-0.0607542649310078
3.064,-0.06501125062020102
3.066,-0.06890201943669116
3.068,-0.07227173598679437
3.07,-0.07343163371154897
3.072,-0.07434233055106926
3.074,-0.07394945676500583
3.076,-0.07356594601231498
3.078,-0.07316224547707322
3.08,-0.07344300989712317
3.082,-0.07365658844859839
3.084,-0.07418100212328477
3.086,-0.07602159345452254
3.088,-0.07740379924053944
3.09,-0.0796256489958217
3.092,-0.08124932828780083
3.094,-0.08258692666554168
3.096,-0.08131792162165499
3.098,-0.07901200509033528
3.1,-0.07635011141020245
3.102,-0.07393788130423387
3.104,-0.07375564128686037
3.106,-0.0744320597779488
3.108,-0.07660856177877402
3.11,-0.08064303737059965
3.112,-0.08478546184575247
3.114,-0.08678406966787959
3.116,-0.08671300938392008
3.118,-0.08471642898623613
3.12,-0.08338071956019269
3.122,-0.08257539597008628
3.124,-0.08579943260153511
3.126,-0.09326103321417477
3.128,-0.1050307001701847
3.13,-0.11659345003441325
3.132,-0.1249862588612893
3.134,-0.12449013720507734
3.136,-0.1106331149394908
3.138,-0.0791330079230931
3.14,-0.028419196640397253
3.142,0.04147848314499935
3.144,0.1276508598499682
3.146,0.2273843748214076
3.148,0.33119137952748495
3.15,0.4344032089277067
3.152,0.5280894693315579
3.154,0.6083173974094129
3.156,0.6680165829168259
3.158,0.7038706656517218
3.16,0.7096568199177012
3.162,0.6782926864096943
3.164,0.6035869838118868
3.166,0.4824227693084201
3.168,0.32293309675083703
3.17,0.13722398686688422
3.172,-0.05163608397476544
3.174,-0.2203673122539754
3.176,-0.35169689813111776
3.178,-0.43359039088613954
3.18,-0.4680310277096391
3.182,-0.46504749065979745
3.184,-0.43897149778930333
3.186,-0.40419773461000463
3.188,-0.37190938301191534
3.19,-0.34624954425001425
3.192,-0.3282541941935795
3.194,-0.31357696642828453
3.196,-0.3007373578612383
3.198,-0.28442500635933426
3.2,-0.26336940315383645
3.202,-0.236446397672671
3.204,-0.20597951124434521
3.206,-0.17349730951857675
3.208,-0.14241324714817805
3.21,-0.11612380681085055
3.212,-0.09686321264860182
3.214,-0.08436807888436693
3.216,-0.0771007833392463
3.218,-0.07457111896831624
3.22,-0.07226053671608466
3.222,-0.06780469758227935
3.224,-0.0633701882373352
3.226,-0.05746388692715837
3.228,-0.052624484941940476
3.23,-0.04948629003894422
3.232,-0.04956173431961055
3.234,-0.05181665447074619
3.236,-0.05381503965428034
3.238,-0.0539995504476196
3.24,-0.050628710707510564
3.242,-0.04502624909356491
3.244,-0.03805971649929178
3.246,-0.031054290130679715
3.248,-0.027554944267575075
3.25,-0.026399609655525586
3.252,-0.028441779826683854
3.254,-0.032012895492412624
3.256,-0.03493793910416449
3.258,-0.035716075849645784
3.26,-0.03342555956235273
3.262,-0.02802474692197122
3.264,-0.021952985465474653
3.266,-0.016196926672277526
3.268,-0.013181166046536727
3.27,-0.012896934130975483
3.272,-0.0145824432913073
3.274,-0.018055299147726092
3.276,-0.021553833403982963
3.278,-0.02176166651376861
3.28,-0.020633841512292632
3.282,-0.016729680225446207
3.284,-0.011949647975140091
3.286,-0.006795855918617488
3.288,-0.004445069546747902
3.29,-0.004979079168879356
3.292,-0.0060444267235859675
3.294,-0.009044535511730498
3.296,-0.010768950181870119
3.298,-0.011210883520187922
3.3,-0.009269426511338559
3.302,-0.006091214355704386
3.304,-0.0009502043258268735
3.306,0.00426402264956498
3.308,0.007743539459609736
3.31,0.00938652468488341
3.312,0.009134176362747812
3.314,0.006922502385391634
3.316,0.006294242783915652
3.318,0.005831500111100687
3.32,0.006618650721779059
3.322,0.010916328773742998
3.324,0.016138274477762032
3.326,0.022110968495802505
3.328,0.02750276510029078
3.33,0.03126489647839868
3.332,0.03394056664938107
3.334,0.03375810767540193
3.336,0.03150331766067501
3.338,0.030235473701935044
3.34,0.029950109362747755
3.342,0.03129262535628771
3.344,0.03639713276020831
3.346,0.043879929247601056
3.348,0.052972942028269646
3.35,0.06175062336879779
3.352,0.06938821198086162
3.354,0.0743883051194927
3.356,0.07672245841660091
3.358,0.07785209822967204
3.36,0.07861723199474038
3.362,0.08001126684988902
3.364,0.08489211775945725
3.366,0.09270595721281812
3.368,0.10230977982993479
3.37,0.11396317195724608
3.372,0.12451603686185114
3.374,0.13275627566104098
3.376,0.13781896793073875
3.378,0.14052081720103293
3.38,0.14249037013247765
3.382,0.1440214524280899
3.384,0.14767058721350892
3.386,0.15471786395846027
3.388,0.1646766939291322
3.39,0.17704064075038697
3.392,0.19038587391457984
3.394,0.2038244835727216
3.396,0.21466937028117958
3.398,0.2210773821993115
3.4,0.22442484743485747
3.402,0.2262513536845408
3.404,0.22676006902868687
3.406,0.2300324376200759
3.408,0.2352367286555649
3.41,0.2441322978786264
3.412,0.25407833640308997
3.414,0.26457542023719965
3.416,0.27116480337112137
3.418,0.2743619742941773
3.42,0.27326887557507873
3.422,0.2686129388549297
3.424,0.26416821193105255
3.426,0.26074950389669327
3.428,0.260144498624731
3.43,0.2613903244678097
3.432,0.26468737489498095
3.434,0.2650109728835681
3.436,0.2602154484623833
3.438,0.2492270937196992
3.44,0.23287203308845866
3.442,0.21200794725326055
3.444,0.1898840721658714
3.446,0.16994805346609704
3.448,0.15453857158229567
3.45,0.14496123608736727
3.452,0.1393138687494532
3.454,0.13415051845506115
3.456,0.12675380723840513
3.458,0.11454480491377221
3.46,0.09709381893299145
3.462,0.07533462736417049
3.464,0.052880592937550035
3.466,0.03268358972376974
3.468,0.01953468973511316
3.47,0.013977479220838092
3.472,0.015058668758933543
3.474,0.018027926240890595
3.476,0.019736709517709256
3.478,0.015212961174445719
3.48,0.0038117824502659696
3.482,-0.011505200914741213
3.484,-0.02788194391154672
3.486,-0.04101322426552214
3.488,-0.046779821036613004
3.49,-0.04445030492197988
3.492,-0.035984453348431866
3.494,-0.02731227740473586
3.496,-0.020853988905850086
3.498,-0.021839909430243377
3.5,-0.029071249303990385
3.502,-0.042599224533059435
3.504,-0.056451775558234524
3.506,-0.06713661723259445
3.508,-0.07135017097909284
3.51,-0.06723989063160554
3.512,-0.05673548236906188
3.514,-0.04381927744528931
3.516,-0.035011983302740496
3.518,-0.031651301037411546
3.52,-0.0366212782247531
3.522,-0.047018316279901676
3.524,-0.05888114786137075
3.526,-0.06770453059871988
3.528,-0.07015655325527934
3.53,-0.06434255431608438
3.532,-0.05313401716641982
3.534,-0.04044053676836995
3.536,-0.03170826676384429
3.538,-0.029223167209953035
3.54,-0.034868933764821655
3.542,-0.04581124082177601
3.544,-0.05822177828676294
3.546,-0.06775634575406424
3.548,-0.07021480693223875
3.55,-0.06674632467959818
3.552,-0.05714390946958868
3.554,-0.047126219293864686
3.556,-0.038893880734472176
3.558,-0.037522161383966954
3.56,-0.04180722642868385
3.562,-0.051000752612570234
3.564,-0.06052062838388219
3.566,-0.06734970944341395
3.568,-0.06857528156702239
3.57,-0.06347718744853105
3.572,-0.05375635910196036
3.574,-0.0428331445126326
3.576,-0.036503455355480496
3.578,-0.03548164686673733
3.58,-0.04039140797355736
3.582,-0.050581365106707576
3.584,-0.059816294087754365
3.586,-0.06755668966153726
3.588,-0.06831998456142134
3.59,-0.06459815244841073
3.592,-0.05499123630481343
3.594,-0.04552798726051441
3.596,-0.03745929280599839
3.598,-0.03400534915855797
3.6,-0.035540969330277276
3.602,-0.04251896658356304
3.604,-0.05013627306849083
3.606,-0.05545951909287518
3.608,-0.05755818249856331
3.61,-0.05520621386796189
3.612,-0.04989651297224865
3.614,-0.042189494906152224
3.616,-0.03767573063464521
3.618,-0.03497243806775221
3.62,-0.037143683800488984
3.622,-0.04175234143014033
3.624,-0.04649530166016696
3.626,-0.05014619082866193
3.628,-0.051420707084828765
3.63,-0.05042735661478777
3.632,-0.04654580457549328
3.634,-0.043809567995989424
3.636,-0.04106352282382705
3.638,-0.04124375463379494
3.64,-0.04306148420046085
3.642,-0.04519653413780764
3.644,-0.04789487412328413
3.646,-0.04870616206893857
3.648,-0.04905328086309366
3.65,-0.049409875620679986
3.652,-0.04903414587167578
3.654,-0.050393134730300965
3.656,-0.05253399330661034
3.658,-0.055668842078914045
3.66,-0.0581378552819067
3.662,-0.05974787413324255
3.664,-0.059323969547140386
3.666,-0.05622639703519323
3.668,-0.05260922420466843
3.67,-0.04831637409459737
3.672,-0.045472238565008614
3.674,-0.0449568387212094
3.676,-0.04600274808667146
3.678,-0.048093403685407314
3.68,-0.050206333288252344
3.682,-0.05029037037987706
3.684,-0.04876092250869385
3.686,-0.04578794260131222
3.688,-0.04124193097432801
3.69,-0.03831488519692992
3.692,-0.03697951064072745
3.694,-0.037526647265804264
3.696,-0.0413927753620154
3.698,-0.04436679531084479
3.7,-0.048099638194227454
3.702,-0.04970309239668087
3.704,-0.04917628872907208
3.706,-0.04846318220232688
3.708,-0.046097504634727816
3.71,-0.04556961476263493
3.712,-0.046676408623726864
3.714,-0.049134567882711117
3.716,-0.052636814800589876
3.718,-0.055349166650926304
3.72,-0.05665892497899059
3.722,-0.055868084902078355
3.724,-0.052536482197782564
3.726,-0.04931385898162099
3.728,-0.0473079295860319
3.73,-0.0472318273462343
3.732,-0.049676400207082395
3.734,-0.05381472859567865
3.736,-0.0586789335854426
3.738,-0.0619178925576189
3.74,-0.0627426305731275
3.742,-0.05967832129660981
3.744,-0.054807900713559
3.746,-0.04938990179398885
3.748,-0.04598511559925573
3.75,-0.043431392471284275
3.752,-0.045078191752960364
3.754,-0.048599127709677156
3.756,-0.05147530406766238
3.758,-0.051972981775062405
3.76,-0.04823441355414252
3.762,-0.04004518958764372
3.764,-0.028961216682596963
3.766,-0.017729031563268043
3.768,-0.010216098775182212
3.77,-0.007269472765385264
3.772,-0.00995866105804445
3.774,-0.015513388050483141
3.776,-0.02099423193618926
3.778,-0.023441212396544744
3.78,-0.021049733140841742
3.782,-0.012905024222496795
3.784,-0.0009754922230453832
3.786,0.011642925632740324
3.788,0.02194038603844764
3.79,0.027187227385925435
3.792,0.027633029628998267
3.794,0.02442714336619086
3.796,0.020784468838682523
3.798,0.01872118263582066
3.8,0.01985931024454434
3.802,0.026775752209510697
3.804,0.03615821640476554
3.806,0.04471113519037708
3.808,0.051455824869626875
3.81,0.051910321335282415
3.812,0.045679740247246685
3.814,0.03622062717731443
3.816,0.025870620420371422
3.818,0.01852737498098304
3.82,0.015501152948450957
3.822,0.017997235058608688
3.824,0.021434070405970947
3.826,0.023470408602604634
3.828,0.019332283533707566
3.83,0.007911483036454562
3.832,-0.009801230117976187
3.834,-0.031118987127891563
3.836,-0.05173481459992467
3.838,-0.06603964431907883
3.84,-0.07315586923363576
3.842,-0.0732753526646858
3.844,-0.06817027011862747
3.846,-0.06107641660420714
3.848,-0.05739876265206146
3.85,-0.05675803184819013
3.852,-0.059757813952115116
3.854,-0.065560851344668
3.856,-0.07203804075126327
3.858,-0.07602516707907375
3.86,-0.07518193115718323
3.862,-0.07311091031345375
3.864,-0.06869411151856164
3.866,-0.06492019895538367
3.868,-0.06367901677633489
3.87,-0.06601006584279592
3.872,-0.07110500634538205
3.874,-0.07605742252806744
3.876,-0.08105071926374137
3.878,-0.08249953587730381
3.88,-0.0816819849637836
3.882,-0.07860956233788385
3.884,-0.07419284006206515
3.886,-0.07104715272996223
3.888,-0.07142718279112557
3.89,-0.07272429497312012
3.892,-0.07672879713554526
3.894,-0.07954603337314439
3.896,-0.0817883951507104
3.898,-0.083553792037577
3.9,-0.08479008859349749
3.902,-0.08789773880636677
3.904,-0.09473567853473094
3.906,-0.1044403016806344
3.908,-0.1155437802655313
3.91,-0.12275475733252081
3.912,-0.12249201459511616
3.914,-0.10895178571427058
3.916,-0.0782691908567747
3.918,-0.027294469954129447
3.92,0.0423378885826617
3.922,0.13087851461263583
3.924,0.23159782256488592
3.926,0.3379193854078884
3.928,0.4440833347350517
3.93,0.5410621888989106
3.932,0.6237582297779268
3.934,0.6868083716018025
3.936,0.7244871402287674
3.938,0.7311621604957346
3.94,0.699532775876321
3.942,0.621561632258364
3.944,0.4977223749081001
3.946,0.33405225013622425
3.948,0.14457305548320407
3.95,-0.04710107739010366
3.952,-0.21781809029278298
3.954,-0.3491793921027517
3.956,-0.4315402507463125
3.958,-0.46730391591909587
3.96,-0.4663786486006518
3.962,-0.44400842815600583
3.964,-0.4134476440158929
3.966,-0.3850203804052897
3.968,-0.3609549615391011
3.97,-0.34007286787983365
3.972,-0.32206323945760734
3.974,-0.30183147781783126
3.976,-0.2783731895981591
3.978,-0.25381055586310336
3.98,-0.22656418496712427
3.982,-0.1989847188217817
3.984,-0.17299230818585754
3.986,-0.14827611545406402
3.988,-0.12538604296286443
3.99,-0.10469157038712959
3.992,-0.08683118999446791
3.994,-0.07207283799958968
3.996,-0.06003473898907202
3.998,-0.05246794028155652
4.0,-0.04917704478480897
4.002,-0.04950397203883604
4.004,-0.05298016292835375
4.006,-0.05769107887882727
4.008,-0.06161571968808671
4.01,-0.06181446872589643
4.012,-0.057996670891521954
4.014,-0.04984285409285071
4.016,-0.0395497576096645
4.018,-0.030373710482545876
4.02,-0.025347501215374445
4.022,-0.024677970235329347
4.024,-0.029462552001396455
4.026,-0.03523924073340913
4.028,-0.04155417865047596
4.03,-0.04232550625118899
4.032,-0.038463245305350224
4.034,-0.03010070406145109
4.036,-0.018945646402838634
4.038,-0.010608976470060495
4.04,-0.0061758195968867275
4.042,-0.008586147440092918
4.044,-0.01646865332732692
4.046,-0.026891627310128473
4.048,-0.0351297539268309
4.05,-0.039141563325757044
4.052,-0.036169912710099734
4.054,-0.027829830066384162
4.056,-0.01425314635932095
4.058,-0.0022353589729817123
4.06,0.006273141593696194
4.062,0.0077301098279136
4.064,0.0029984049185076867
4.066,-0.005615552396801542
4.068,-0.014291327166076277
4.07,-0.018216904033745256
4.072,-0.016095810773956918
4.074,-0.0060411590985479146
4.076,0.006492958904306293
4.078,0.017706837360241003
4.08,0.023973364842075816
4.082,0.02427108697176762
4.084,0.018964031231033743
4.086,0.009625982640621754
4.088,0.0029904269700202694
4.09,0.00045444818083705153
4.092,0.0047373026571521275
4.094,0.01422520386974405
4.096,0.026253380944766452
4.098,0.03619928854895613
4.1,0.040938959979652724
4.102,0.040080032254298
4.104,0.03448302160035913
4.106,0.02787458052956933
4.108,0.02272294852797633
4.11,0.023838528717441358
4.112,0.030264981095783274
4.114,0.041900003463516605
4.116,0.05398423515148628
4.118,0.0642451874983652
4.12,0.06822324170348307
4.122,0.06624198914104389
4.124,0.06063863071464433
4.126,0.054176313028719066
4.128,0.05089278859260839
4.13,0.053863442672047554
4.132,0.06238248872674097
4.134,0.07388667288861495
4.136,0.08663742389843508
4.138,0.09686774536332256
4.14,0.1019156615769668
4.142,0.10488018796691687
4.144,0.10453982804180734
4.146,0.1045810729631588
4.148,0.10846757388235657
4.15,0.11642344392369834
4.152,0.12694957715775804
4.154,0.13906496316074257
4.156,0.1511615605904603
4.158,0.15910780274550781
4.16,0.16313677804434684
4.162,0.1651501588591757
4.164,0.16531681721475172
4.166,0.16814136867610602
4.168,0.1753987733683673
4.17,0.18538484260581536
4.172,0.1977974079819554
4.174,0.21029622717759633
4.176,0.22050345599893353
4.178,0.22702073547284826
4.18,0.22903155701971709
4.182,0.23023186428873393
4.184,0.2321150099122402
4.186,0.2359105639295912
4.188,0.24262506691189184
4.19,0.2525934000407999
4.192,0.262737259986126
4.194,0.2714301137320731
4.196,0.27661013873546497
4.198,0.27867286682285974
4.2,0.2767613872994621
4.202,0.27232027030343325
4.204,0.2690877498985998
4.206,0.26694061674735325
4.208,0.26607609569603674
4.21,0.2648827892018613
4.212,0.2615705498546686
4.214,0.2543123288235532
4.216,0.24243133128440755
4.218,0.22613761124510404
4.22,0.20749526425805567
4.222,0.18961487309596092
4.224,0.17538817228080833
4.226,0.16627942012773486
4.228,0.15967636807762242
4.23,0.15508364231322502
4.232,0.14709961151669004
4.234,0.13479304207796308
4.236,0.11592225553091959
4.238,0.09449157383743767
4.24,0.07040063821563991
4.242,0.05030876605245435
4.244,0.03616065137174673
4.246,0.028967892151055254
4.248,0.02734910203652688
4.25,0.027032678362594254
4.252,0.025138627091875382
4.254,0.018735460181256647
4.256,0.006046600911606742
4.258,-0.010189184170148222
4.26,-0.027365561748275126
4.262,-0.04142213253732693
4.264,-0.04746766699874145
4.266,-0.046963000817870595
4.268,-0.04098019454725585
4.27,-0.033418596485986524
4.272,-0.028475914881831092
4.274,-0.028975938936303864
4.276,-0.03522054244975378
4.278,-0.04583252929055718
4.28,-0.057665232511200315
4.282,-0.0654290717619702
4.284,-0.06739473962271185
4.286,-0.06249507947378082
4.288,-0.05338057393340058
4.29,-0.0443960935788333
4.292,-0.03987583923556753
4.294,-0.041428015383577405
4.296,-0.04989000121029299
4.298,-0.0633731393802521
4.3,-0.07538627692242757
4.302,-0.08259909803163468
4.304,-0.0825504149164965
4.306,-0.0746254263499317
4.308,-0.061913058332842205
4.31,-0.04899667366613323
4.312,-0.04215353271506026
4.314,-0.042672891359340874
4.316,-0.04995630564990298
4.318,-0.061754778981702355
4.32,-0.0724482740106457
4.322,-0.0788618117257387
4.324,-0.07790169321633166
4.326,-0.07036828556021131
4.328,-0.059628695097466475
4.33,-0.049283348791173985
4.332,-0.04435628480201667
4.334,-0.04572359869684676
4.336,-0.05439615207886535
4.338,-0.06493190369323562
4.34,-0.07480634358977065
4.342,-0.07919384145827846
4.344,-0.07545609115884988
4.346,-0.0657561935303394
4.348,-0.052567296987211604
4.35,-0.04028239900038239
4.352,-0.035483069242030166
4.354,-0.03755176946519695
4.356,-0.04616771874134324
4.358,-0.057870576621327274
4.36,-0.06745301462576345
4.362,-0.07162075355056052
4.364,-0.06826284371009478
4.366,-0.059840182478050896
4.368,-0.04875686233622623
4.37,-0.04098253790543809
4.372,-0.03748397824792097
4.374,-0.04108757819188898
4.376,-0.047210970364684246
4.378,-0.05454872323520217
4.38,-0.059418021525685843
4.382,-0.05921625859276816
4.384,-0.055411797080094416
4.386,-0.04968894767408669
4.388,-0.04421362896423751
4.39,-0.041336144007681194
4.392,-0.04326237130327982
4.394,-0.04922201762265929
4.396,-0.05644903141643749
4.398,-0.06295578900830905
4.4,-0.06676607024638002
4.402,-0.0670987306031085
4.404,-0.06202997755990388
4.406,-0.055386929632437895
4.408,-0.04794268108230819
4.41,-0.044262458051480255
4.412,-0.044679645510062226
4.414,-0.04881145490322613
4.416,-0.05579064387375779
4.418,-0.06209189487641894
4.42,-0.0645927299883138
4.422,-0.06342520837070931
4.424,-0.05927595759270615
4.426,-0.053031329800922906
4.428,-0.04793900215310473
4.43,-0.04565253721383967
4.432,-0.04656238350149588
4.434,-0.04968427957723369
4.436,-0.054133655769513025
4.438,-0.057966607155886835
4.44,-0.059018709730600576
4.442,-0.05738319412382391
4.444,-0.05533227306020925
4.446,-0.05272814887726292
4.448,-0.05118884995719865
4.45,-0.052375660880328134
4.452,-0.053711496894053856
4.454,-0.057649326959956754
4.456,-0.05936941635458396
4.458,-0.06059745023067098
4.46,-0.060182866139616216
4.462,-0.058180693167225836
4.464,-0.055396266803771604
4.466,-0.054587406007585236
4.468,-0.05467132354140228
4.47,-0.05628680547325775
4.472,-0.058912866198727466
4.474,-0.06050564808474709
4.476,-0.059387887043052916
4.478,-0.05600829184835524
4.48,-0.04923435561723415
4.482,-0.04303504199590166
4.484,-0.03866983531917662
4.486,-0.03771776018910734
4.488,-0.040359995102420027
4.49,-0.0452347515053288
4.492,-0.05094888899226186
4.494,-0.05405310757107103
4.496,-0.05108321896316223
4.498,-0.044227722799539196
4.5,-0.03332438489633182
4.502,-0.02316114542609748
4.504,-0.017348631877314856
4.506,-0.017220807763131438
4.508,-0.022224492313063927
4.51,-0.0310703575619531
4.512,-0.03761029231094416
4.514,-0.04110322925977772
4.516,-0.03735950213780565
4.518,-0.028287536287014158
4.52,-0.014598029565350777
4.522,-0.0027597810653172843
4.524,0.006388675050373739
4.526,0.008814631977701472
4.528,0.005768063359638125
4.53,0.0013454654384894716
4.532,-0.0017075461063817002
4.534,-0.0004896805511145022
4.536,0.006863638367836752
4.538,0.017778610828324957
4.54,0.03181342228616439
4.542,0.04299337042000477
4.544,0.049390477588057834
4.546,0.05031791047979665
4.548,0.0456518311422071
4.55,0.037134520898284507
4.552,0.029918766496360234
4.554,0.023922207551421576
4.556,0.020645934898489593
4.558,0.019936300323551197
4.56,0.018799182369180593
4.562,0.01295734849347999
4.564,0.0025410518174463293
4.566,-0.013758710522430159
4.568,-0.034538721905986024
4.57,-0.05460477510839042
4.572,-0.0696107896260429
4.574,-0.07677255370505251
4.576,-0.07497781561684197
4.578,-0.06684880645162139
4.58,-0.05772562675918894
4.582,-0.052966357786094403
4.584,-0.05523239941808201
4.586,-0.06543628721431623
4.588,-0.07976953103640523
4.59,-0.09380204506376516
4.592,-0.10322111083015392
4.594,-0.10352459244467598
4.596,-0.09700093377019248
4.598,-0.08461038463738461
4.6,-0.07281613785026603
4.602,-0.06382841588102856
4.604,-0.06295492191236392
4.606,-0.06870666309829306
4.608,-0.08000739933243518
4.61,-0.09241792128659583
4.612,-0.10088665526577473
4.614,-0.10333376343309271
4.616,-0.0984466828975527
4.618,-0.08838108807165662
4.62,-0.07749566250148333
4.622,-0.06762890220883055
4.624,-0.06360152362541589
4.626,-0.0665313940872774
4.628,-0.07422026099415832
4.63,-0.0844452086065129
4.632,-0.09263279696963811
4.634,-0.09725008820173037
4.636,-0.09836855855859623
4.638,-0.09819236516893973
4.64,-0.09775544780370309
4.642,-0.10131736219294497
4.644,-0.10809760770573079
4.646,-0.11584226898313474
4.648,-0.11837730331057841
4.65,-0.1089082162529435
4.652,-0.08053435113168403
4.654,-0.03037194138746486
4.656,0.04315105524495601
4.658,0.1369256191071466
4.66,0.24444376509158866
4.662,0.3562043199522585
4.664,0.4626778453122441
4.666,0.5554565217287699
4.668,0.6295509803658819
4.67,0.6781396574445777
4.672,0.6982886511946453
4.674,0.6831584683076735
4.676,0.6280038696702099
4.678,0.5299440302328716
4.68,0.3901685147619307
4.682,0.21807639934428405
4.684,0.031886472628709
4.686,-0.1475153902986385
4.688,-0.29940726911558857
4.69,-0.4073800949513289
4.692,-0.46632229590546054
4.694,-0.48183788091091195
4.696,-0.4659397743891399
4.698,-0.43416454550041605
4.7,-0.397492046776335
4.702,-0.3645265947814537
4.704,-0.3382776202432588
4.706,-0.31861979838005317
4.708,-0.30322541429608246
4.71,-0.2895658141401316
4.712,-0.27655529479742247
4.714,-0.2625676504908534
4.716,-0.2478250037978802
4.718,-0.22942590136930419
4.72,-0.20743195469280992
4.722,-0.18240562514529113
4.724,-0.1545979370791209
4.726,-0.12770641092789634
4.728,-0.10287859537840227
4.73,-0.08352944015756866
4.732,-0.06961752881873935
4.734,-0.06225429345270202
4.736,-0.06080541305884195
4.738,-0.06286385120538539
4.74,-0.06653500181104083
4.742,-0.07034826230493008
4.744,-0.07284706380080029
4.746,-0.07062027501247557
4.748,-0.06434418121811324
4.75,-0.05438970591912587
4.752,-0.04372370360242614
4.754,-0.035126112475707634
4.756,-0.03203531168424556
4.758,-0.03449968228650415
4.76,-0.041681678234413176
4.762,-0.04914052217590486
4.764,-0.05579891586183414
4.766,-0.05620975709818466
4.768,-0.04960241341272984
4.77,-0.039265167960244894
4.772,-0.028084098650010055
4.774,-0.019403876204924134
4.776,-0.015661621552479247
4.778,-0.01835141679027514
4.78,-0.023756067533749137
4.782,-0.029578755856939157
4.784,-0.032241085889818936
4.786,-0.029334657604625544
4.788,-0.021637233360942476
4.79,-0.011267483678494068
4.792,-0.0028929047475149184
4.794,0.0017113192331172375
4.796,0.00018413732478866055
4.798,-0.008432905548812918
4.8,-0.01865229953632238
4.802,-0.027480919629005663
4.804,-0.028986601628496752
4.806,-0.022874011898518353
4.808,-0.009437255099036817
4.81,0.005504680165350403
4.812,0.01868249378167126
4.814,0.0230492604343928
4.816,0.01839332260049331
4.818,0.007247195702907544
4.82,-0.007280195739181931
4.822,-0.017696588759064782
4.824,-0.020884427816507702
4.826,-0.014733131542656697
4.828,-0.0009968214682737116
4.83,0.015970769703210805
4.832,0.029510687404841338
4.834,0.03748025863325318
4.836,0.0378866711617416
4.838,0.03068649391072781
4.84,0.021430199869863997
4.842,0.01388484898405306
4.844,0.01217189232125494
4.846,0.017150533130196488
4.848,0.028682940000361194
4.85,0.04207222479088784
4.852,0.05350334480305384
4.854,0.05992266356297741
4.856,0.0596194307349253
4.858,0.054889878094234935
4.86,0.04752543802994909
4.862,0.04332827956791378
4.864,0.0452379628938514
4.866,0.05380307556623337
4.868,0.06859316017130133
4.87,0.08477492678585204
4.872,0.0986198545433909
4.874,0.10534780275524978
4.876,0.10558479012311975
4.878,0.10087038712573983
4.88,0.09502697685175379
4.882,0.0926495572217174
4.884,0.09631500781289591
4.886,0.10821165169136215
4.888,0.12571647644082612
4.89,0.14607011185593213
4.892,0.1628692494821756
4.894,0.17378203993371913
4.896,0.17881536223949582
4.898,0.17764981934498386
4.9,0.17393104431126336
4.902,0.171814986109954
4.904,0.17434931845645665
4.906,0.18332403117835303
4.908,0.19702659068342332
4.91,0.21397374269043237
4.912,0.23030931422428796
4.914,0.24230580546625843
4.916,0.24938257651298934
4.918,0.25125898333251045
4.92,0.25021001084628797
4.922,0.25074360826189546
4.924,0.2542347394906022
4.926,0.2610502688655909
4.928,0.2714882313274395
4.93,0.2825244241091188
4.932,0.2900429373106909
4.934,0.29204962135280343
4.936,0.2893939509945025
4.938,0.2837375040990462
4.94,0.27581514262095347
4.942,0.26931215626473554
4.944,0.26381808478761226
4.946,0.2602664668240265
4.948,0.25705759460701794
4.95,0.2517800334828316
4.952,0.24321192732983213
4.954,0.23118731330908526
4.956,0.21498833326158143
4.958,0.19713312231671337
4.96,0.1796805261336903
4.962,0.1633623770636907
4.964,0.1509072086861466
4.966,0.14182047881942939
4.968,0.1336833128960713
4.97,0.12481331007655247
4.972,0.11198865675001973
4.974,0.09492676339756971
4.976,0.07432931622663766
4.978,0.0535004547317747
4.98,0.03272788939212895
4.982,0.016710298266790116
4.984,0.005281305091227874
4.986,-0.002460704629847329
4.988,-0.007692035385567099
4.99,-0.012293295792547244
4.992,-0.01843397939134761
4.994,-0.02450130097350409
4.996,-0.0304028566476245
4.998,-0.035100780318427866
5.0,-0.03812800244752029
5.002,-0.03984310159911495
5.004,-0.041297122984970895
5.006,-0.044762254016698796
5.008,-0.04912989736467837
5.01,-0.05445317565408238
5.012,-0.058853707826842
5.014,-0.060855870362210046
5.016,-0.0590204889389744
5.018,-0.05460802965726257
5.02,-0.04997372574919789
5.022,-0.045500436076021764
5.024,-0.045069280218511115
5.026,-0.04927192834694089
5.028,-0.05569326105511804
5.03,-0.06458116391682352
5.032,-0.07307048113385899
5.034,-0.07889887583906238
5.036,-0.08133825148400368
5.038,-0.07995858270300134
5.04,-0.07289170492748845
5.042,-0.06445632704400403
5.044,-0.05526680176505797
5.046,-0.05017013940358736
5.048,-0.050443814730541665
5.05,-0.055598839314314405
5.052,-0.06489787434731792
5.054,-0.07340833466537516
5.056,-0.07818309823090519
5.058,-0.07709254159290993
5.06,-0.06995518340396134
5.062,-0.06288635895154372
5.064,-0.05709892417157123
5.066,-0.055620192490993606
5.068,-0.060438884698773926
5.07,-0.06643920645655987
5.072,-0.0711736215794853
5.074,-0.07219068150597041
5.076,-0.06640373279467653
5.078,-0.05795593490838254
5.08,-0.048223958237199945
5.082,-0.04193720194691294
5.084,-0.04174082695294632
5.086,-0.047759246137469326
5.088,-0.05772831332389638
5.09,-0.06905048373169434
5.092,-0.07776869241369747
5.094,-0.08009158803752858
5.096,-0.07487909340682167
5.098,-0.06450380263806607
5.1,-0.0517411226938968
5.102,-0.040718464779802975
5.104,-0.03532380653784441
5.106,-0.03769050523874346
5.108,-0.0463514576899431
5.11,-0.0583987862822184
5.112,-0.06759439463968284
5.114,-0.07200465424138908
5.116,-0.06952536708348477
5.118,-0.06070306664947906
5.12,-0.04853099208517018
5.122,-0.037296736097299416
5.124,-0.03192784535278794
5.126,-0.03247710431545471
5.128,-0.04133449710795484
5.13,-0.053469567056682266
5.132,-0.06560710607752794
5.134,-0.07287747076220971
5.136,-0.07330111564707997
5.138,-0.06553499898202246
5.14,-0.05259830978612585
5.142,-0.038692144356276784
5.144,-0.027577007165885986
5.146,-0.02213805262963127
5.148,-0.02468823357586299
5.15,-0.03326776021579511
5.152,-0.045810376974174956
5.154,-0.055714697084590016
5.156,-0.06121019319851324
5.158,-0.0609971105190969
5.16,-0.05592874749942685
5.162,-0.04987761953895384
5.164,-0.04623793275402566
5.166,-0.04764650517684486
5.168,-0.05440655290101017
5.17,-0.0648166543007648
5.172,-0.07425429763522655
5.174,-0.07857796681282292
5.176,-0.07830225169652844
5.178,-0.07210430505165424
5.18,-0.06449063172521144
5.182,-0.0567808827777615
5.184,-0.05182153630376077
5.186,-0.05193049876332505
5.188,-0.05546568588781176
5.19,-0.0611556023634536
5.192,-0.06503218464133967
5.194,-0.06558260964798025
5.196,-0.06267076214658533
5.198,-0.056889177602460525
5.2,-0.049237752145616605
5.202,-0.043289032019308255
5.204,-0.04018782253154414
5.206,-0.040876157304956466
5.208,-0.04582436998708053
5.21,-0.05033674780724998
5.212,-0.054274793962276094
5.214,-0.055891359618619046
5.216,-0.05244861631151049
5.218,-0.04740137954207359
5.22,-0.04111304187296094
5.222,-0.03525544216118943
5.224,-0.03215356758840752
5.226,-0.03233323267696499
5.228,-0.03442496406557563
5.23,-0.03742100366926083
5.232,-0.03914241153508334
5.234,-0.036705390457591226
5.236,-0.02980151010098815
5.238,-0.01970602418393079
5.24,-0.009052868181198624
5.242,-0.0005085653474288229
5.244,0.004497556468015149
5.246,0.0058772852827581185
5.248,0.004804484893784536
5.25,0.004526433997611067
5.252,0.004184706805394503
5.254,0.005746828114849782
5.256,0.008080562917514017
5.258,0.011118837699209086
5.26,0.013008361573380554
5.262,0.014137891036294804
5.264,0.01700297408738809
5.266,0.019953876000068645
5.268,0.023947281180508227
5.27,0.028440733552618957
5.272,0.029516980743349523
5.274,0.026222233877992072
5.276,0.017993268525579267
5.278,0.0029855859559713115
5.28,-0.013866411230693664
5.282,-0.03212599153138238
5.284,-0.04639201496469392
5.286,-0.05689600079844164
5.288,-0.061905659784380646
5.29,-0.06473807375868651
5.292,-0.06533338922589735
5.294,-0.06652327490129926
5.296,-0.07027118794748449
5.298,-0.07519889853927438
5.3,-0.0816212082873814
5.302,-0.08611743454548272
5.304,-0.08844792940523166
5.306,-0.08746702927189862
5.308,-0.08366016440128599
5.31,-0.07806103894772598
5.312,-0.07254150565410858
5.314,-0.06872119821263681
5.316,-0.06891284520235708
5.318,-0.0715286514469394
5.32,-0.07521074676299103
5.322,-0.08067154365808615
5.324,-0.08394450217854399
5.326,-0.08456719196956998
5.328,-0.08422355507408985
5.33,-0.0835669450484507
5.332,-0.08325968187576252
5.334,-0.08457747390118298
5.336,-0.08711304778684988
5.338,-0.09009376071241322
5.34,-0.09360335437637993
5.342,-0.09365076560431466
5.344,-0.09169302152928946
5.346,-0.08702833920912467
5.348,-0.08050955974868025
5.35,-0.07427987265078728
5.352,-0.07360875717338325
5.354,-0.07926093142413215
5.356,-0.09202439392595042
5.358,-0.10997547873119423
5.36,-0.1257828860072222
5.362,-0.13395267583883663
5.364,-0.12554691791510927
5.366,-0.09571558182955016
5.368,-0.04444310978085567
5.37,0.02679217037034696
5.372,0.11432868200548514
5.374,0.21010618459487168
5.376,0.3102378638423696
5.378,0.40875841699819954
5.38,0.4992504716751953
5.382,0.579484348133232
5.384,0.6435900056079261
5.386,0.6854650266292545
5.388,0.6980352470778928
5.39,0.6726574779711878
5.392,0.6025127897667666
5.394,0.4844550806003487
5.396,0.32560247184920854
5.398,0.14005774438403218
5.4,-0.05151945306437544
5.402,-0.2233221127662507
5.404,-0.3552418298221993
5.406,-0.43643903607679335
5.408,-0.4680344179702296
5.41,-0.4606602674517034
5.412,-0.43005159203123233
5.414,-0.3922257239365904
5.416,-0.35895350896449174
5.418,-0.3341067341356192
5.42,-0.31912335544697906
5.422,-0.30839914899878235
5.424,-0.2980600431616045
5.426,-0.2844297996489608
5.428,-0.26563429335696825
5.43,-0.24212397738968972
5.432,-0.21631562703131224
5.434,-0.18988976368445995
5.436,-0.16440299061283908
5.438,-0.1427409529946532
5.44,-0.12360398702478519
5.442,-0.10781651984872057
5.444,-0.09393928420639115
5.446,-0.0815591562243084
5.448,-0.07277062268267323
5.45,-0.06568606541700563
5.452,-0.062189763298220416
5.454,-0.06143526609340743
5.456,-0.06266987294662309
5.458,-0.06482634697636906
5.46,-0.06501285735786075
5.462,-0.06368214975592539
5.464,-0.05900700144563773
5.466,-0.05092648224603402
5.468,-0.042474274056511885
5.47,-0.0342920784536142
5.472,-0.028549392246511655
5.474,-0.026710918464103166
5.476,-0.02663275938943975
5.478,-0.029319928899308192
5.48,-0.030406332331102886
5.482,-0.029135400430534936
5.484,-0.025436220545933065
5.486,-0.020673629535842793
5.488,-0.01580000430175647
5.49,-0.014884802045623658
5.492,-0.016242543662086193
5.494,-0.02052444266448973
5.496,-0.02613119639148091
5.498,-0.032155685530776204
5.5,-0.03484139531046622
5.502,-0.035338524510183836
5.504,-0.03143573702794735
5.506,-0.02597753544566663
5.508,-0.017824410169671456
5.51,-0.010408560667126011
5.512,-0.004099155282892384
5.514,0.001346503184974823
5.516,0.00402588289045495
5.518,0.0047527373068214605
5.52,0.003628641609591723
5.522,0.0025331888090155195
5.524,-0.00023827416119791744
5.526,-0.0020408370669002637
5.528,-0.0026426326855529415
5.53,-0.000813422194209829
5.532,0.002058634809610817
5.534,0.005141709645091318
5.536,0.008049956077109425
5.538,0.008508163304822576
5.54,0.00795818652289411
5.542,0.007301991271962206
5.544,0.005912726462163895
5.546,0.005919010654160273
5.548,0.007636046648774263
5.55,0.009940977417225178
5.552,0.014405782392454533
5.554,0.01910479937807958
5.556,0.024161497769392744
5.558,0.030225001066817962
5.56,0.038112903167917336
5.562,0.045798351262495096
5.564,0.051776935510960076
5.566,0.053681525093635905
5.568,0.05289351216142793
5.57,0.04688224813865694
5.572,0.04010384916620496
5.574,0.034469378904614295
5.576,0.0335779744551536
5.578,0.040023581999559875
5.58,0.05307249291895388
5.582,0.06987109935752965
5.584,0.08813080507499922
5.586,0.1020352508030283
5.588,0.10900876005884261
5.59,0.10902291584215136
5.592,0.10429134889416215
5.594,0.09844574286267171
5.596,0.09550190644404684
5.598,0.09902400720926563
5.6,0.10683253222673186
5.602,0.11839644866551066
5.604,0.13078030182954867
5.606,0.14178941517755278
5.608,0.14786417770581467
5.61,0.15135911007872307
5.612,0.15307549286739766
5.614,0.15820888470018366
5.616,0.1661096569401746
5.618,0.1793398258224424
5.62,0.195405235497909
5.622,0.2122853627452182
5.624,0.22657198167065867
5.626,0.2357845378524393
5.628,0.23835182218095652
5.63,0.23787036576908044
5.632,0.23452581619723484
5.634,0.23288849462119737
5.636,0.2345415731931802
5.638,0.23907188563052031
5.64,0.24781908274552467
5.642,0.2564888422766836
5.644,0.26240177644000806
5.646,0.26290139988005934
5.648,0.2583793550166514
5.65,0.2505205630610791
5.652,0.24167005490323315
5.654,0.23756151373481957
5.656,0.23889403423904484
5.658,0.24530269650017328
5.66,0.25411732456816544
5.662,0.2590008246901631
5.664,0.256220992355791
5.666,0.2440678655289218
5.668,0.22287530019049268
5.67,0.19725995616636216
5.672,0.17149251105169655
5.674,0.15124766906765152
5.676,0.13721385776125308
5.678,0.13009162716552794
5.68,0.12735544951603894
5.682,0.12385853139161421
5.684,0.11803917728906459
5.686,0.10526316533215263
5.688,0.08879332175393131
5.69,0.06702817157029108
5.692,0.04593499711580213
5.694,0.026908245589714767
5.696,0.013495390597708027
5.698,0.005471217522170639
5.7,0.0025977661323744222
5.702,0.0011402468123373867
5.704,-7.630888078056475e-05
5.706,-0.003480612529036507
5.708,-0.010884735295287107
5.71,-0.020242006978428366
5.712,-0.0310997001734023
5.714,-0.039551831746414294
5.716,-0.04431953957148302
5.718,-0.04455516681752875
5.72,-0.04008669028272696
5.722,-0.03303933648208103
5.724,-0.02500400000586704
5.726,-0.020079921946060196
5.728,-0.018147234499981273
5.73,-0.020620300918291725
5.732,-0.02874204313996754
5.734,-0.03927872032341028
5.736,-0.05033879163511594
5.738,-0.06101418034374467
5.74,-0.06862867145157381
5.742,-0.07153593068680869
5.744,-0.0715750992061268
5.746,-0.06840398920588481
5.748,-0.06495268632098065
5.75,-0.06217431803645372
5.752,-0.061147994715831995
5.754,-0.06046148183377349
5.756,-0.059714337658481484
5.758,-0.05696176620719028
5.76,-0.05196336687030059
5.762,-0.04618422252667653
5.764,-0.04058294409867465
5.766,-0.03828165597344041
5.768,-0.03923127064913335
5.77,-0.04496494378457492
5.772,-0.05348975346715282
5.774,-0.062321463411499474
5.776,-0.06963424162290865
5.778,-0.07248085556793854
5.78,-0.07103489676705063
5.782,-0.06780769728922938
5.784,-0.061794629360985225
5.786,-0.055510470921760556
5.788,-0.049887891810181856
5.79,-0.04504203623349157
5.792,-0.042945514675304275
5.794,-0.04209983556365021
5.796,-0.04431262045797543
5.798,-0.04767759263964618
5.8,-0.05180035964720705
5.802,-0.05622914254141691
5.804,-0.058964132205437156
5.806,-0.05886753957071107
5.808,-0.055806628842116575
5.81,-0.05244070192783778
5.812,-0.049688855630578295
5.814,-0.04904398879365028
5.816,-0.05197813135151516
5.818,-0.05667626340670352
5.82,-0.0622331718578242
5.822,-0.06728121854222205
5.824,-0.06784620138695692
5.826,-0.06412154230370211
5.828,-0.05685636446275849
5.83,-0.04817839640635378
5.832,-0.039878364010325906
5.834,-0.036393555268622625
5.836,-0.038861613249874555
5.838,-0.04661318048178978
5.84,-0.05732547802753113
5.842,-0.06681647960801301
5.844,-0.07121022730851008
5.846,-0.07004526348021999
5.848,-0.06289730762632383
5.85,-0.05225304443713434
5.852,-0.04164811300812835
5.854,-0.03436684293515252
5.856,-0.033183559662280024
5.858,-0.035629838098598945
5.86,-0.04108946649913171
5.862,-0.04771626359421958
5.864,-0.05285331202831701
5.866,-0.05342794393358068
5.868,-0.04978807095911364
5.87,-0.04164231405936923
5.872,-0.033099536788116106
5.874,-0.027148445990239536
5.876,-0.0271421114781375
5.878,-0.03386569610543173
5.88,-0.046557489592271246
5.882,-0.0598979331702541
5.884,-0.07061180337787268
5.886,-0.07308677677303922
5.888,-0.06739292892961452
5.89,-0.05630410904689428
5.892,-0.04329517790606264
5.894,-0.03387872896511181
5.896,-0.032902231732756096
5.898,-0.040450977257223665
5.9,-0.053780960702960394
5.902,-0.06832004869299209
5.904,-0.0773706443262005
5.906,-0.07787691197369984
5.908,-0.0695888676057844
5.91,-0.056178270649300255
5.912,-0.042254669441014296
5.914,-0.03264577573136186
5.916,-0.03258666052118622
5.918,-0.03949986639800579
5.92,-0.051828074470310626
5.922,-0.06498517254329085
5.924,-0.07307001217010392
5.926,-0.07469941626720082
5.928,-0.0692720433921495
5.93,-0.058189405910882286
5.932,-0.04595318512668002
5.934,-0.037480255572223314
5.936,-0.03526915106033192
5.938,-0.04010448278057575
5.94,-0.050780468007466606
5.942,-0.06394014174240276
5.944,-0.07370887502297424
5.946,-0.07750674686175474
5.948,-0.07236329610547348
5.95,-0.06225069098212535
5.952,-0.04932244832270437
5.954,-0.038353494032385416
5.956,-0.03297036263276017
5.958,-0.03432995852122978
5.96,-0.03972900615110448
5.962,-0.04527379153575933
5.964,-0.048345266689570246
5.966,-0.0453054342842614
5.968,-0.0378124097918926
5.97,-0.026268437795565446
5.972,-0.014254243492675352
5.974,-0.007178855938359946
5.976,-0.006656639801784214
5.978,-0.013210898978754592
5.98,-0.02376892790169134
5.982,-0.03411225897589528
5.984,-0.040093265471261144
5.986,-0.0371558235064235
5.988,-0.026600880296320736
5.99,-0.009147164906077376
5.992,0.009393769546250229
5.994,0.023183637985624166
5.996,0.03075825194556769
5.998,0.030250572271055574
6.0,0.024005368566923934
6.002,0.01538786606842194
6.004,0.008883152719710078
6.006,0.006831115124619935
6.008,0.012256971777969795
6.01,0.02320511893831399
6.012,0.03679026974029766
6.014,0.048919720560122164
6.016,0.05640852717249424
6.018,0.0570850662319166
6.02,0.05050560117409436
6.022,0.03804815251713376
6.024,0.021379041798518638
6.026,0.003499731881217894
6.028,-0.011285385186473923
6.03,-0.023128275110339762
6.032,-0.02987903966087173
6.034,-0.03274926072279075
6.036,-0.034530830848573946
6.038,-0.03664554632577065
6.04,-0.04234536760093441
6.042,-0.05032178738105414
6.044,-0.058840306484990196
6.046,-0.06734192477068146
6.048,-0.07130437522470236
6.05,-0.07207750905290174
6.052,-0.0694217449675809
6.054,-0.06557846371973437
6.056,-0.061853498730223826
6.058,-0.06085126835135127
6.06,-0.06260904384725097
6.062,-0.06691370156505468
6.064,-0.0720265002131982
6.066,-0.07691175825453553
6.068,-0.07890240654767526
6.07,-0.07859033222337167
6.072,-0.07464945061929218
6.074,-0.06931297641736836
6.076,-0.06433294184606908
6.078,-0.06041860866365149
6.08,-0.06032762199965538
6.082,-0.06290998970922676
6.084,-0.06843424754715915
6.086,-0.07344186908362135
6.088,-0.07820257636365414
6.09,-0.07963527244059432
6.092,-0.07838831583033463
6.094,-0.07470179922587375
6.096,-0.07173463348950723
6.098,-0.07221647007115693
6.1,-0.07552133090210053
6.102,-0.08547348739381475
6.104,-0.09930738656272356
6.106,-0.1151660391761241
6.108,-0.12634226815633973
6.11,-0.1282037122667774
6.112,-0.11548880539458868
6.114,-0.08351160885044928
6.116,-0.030828695329024606
6.118,0.04289701882304619
6.12,0.13181303258902047
6.122,0.23226168231261227
6.124,0.3371344814024201
6.126,0.4386928600900528
6.128,0.5305340176828464
6.13,0.607689277887584
6.132,0.6671658928594277
6.134,0.7054604572869376
6.136,0.7145977315459253
6.138,0.6870670929492699
6.14,0.6177022890865773
6.142,0.5011976773652236
6.144,0.3437080174260556
6.146,0.15693484892587353
6.148,-0.03571778383360187
6.15,-0.21099459307195434
6.152,-0.34734674576459595
6.154,-0.4336243003299757
6.156,-0.4692709409693733
6.158,-0.46456524149084544
6.16,-0.43480423877927254
6.162,-0.3977214961253463
6.164,-0.3647238302219039
6.166,-0.341606442278444
6.168,-0.3282337723790661
6.17,-0.31931508685827537
6.172,-0.3089930262190894
6.174,-0.2936549545428323
6.176,-0.2692886120901914
6.178,-0.2388705730884455
6.18,-0.20363708825265675
6.182,-0.16850672526121618
6.184,-0.13724434810364988
6.186,-0.11305489678052377
6.188,-0.09813497937044713
6.19,-0.0903504936502197
6.192,-0.08778506341875061
6.194,-0.08657699539333913
6.196,-0.08335526086118268
6.198,-0.07673782937066218
6.2,-0.06771013898618015
6.202,-0.057123016330271836
6.204,-0.0488785284644936
6.206,-0.04548535422479277
6.208,-0.04652107337413034
6.21,-0.05119365678557308
6.212,-0.05678029157102701
6.214,-0.05839528521002109
6.216,-0.05642220489424912
6.218,-0.0490800372823941
6.22,-0.03892502647818798
6.222,-0.027491241387049566
6.224,-0.02059172549421705
6.226,-0.018919719385998575
6.228,-0.02246521094069724
6.23,-0.02994718207282584
6.232,-0.03807848808366894
6.234,-0.04217377621202242
6.236,-0.04249457420393737
6.238,-0.03683879225726969
6.24,-0.027176243781832754
6.242,-0.017492300280345457
6.244,-0.01029155601654645
6.246,-0.0073259360345033706
6.248,-0.010010307031757558
6.25,-0.016718095681021335
6.252,-0.02281648567414926
6.254,-0.028032021805543938
6.256,-0.028630879385441205
6.258,-0.024987199078791367
6.26,-0.017356650029259003
6.262,-0.008973458751401184
6.264,-0.0028329239966369615
6.266,0.00038013313357667305
6.268,-0.0011669212256103906
6.27,-0.0066122454879032995
6.272,-0.011160874172204188
6.274,-0.015138689599516501
6.276,-0.014939713327617447
6.278,-0.010531131628630886
6.28,-0.004363081723265208
6.282,0.002243496500159921
6.284,0.007974123333117306
6.286,0.01033003902566274
6.288,0.011087132736106602
6.29,0.010271245273585299
6.292,0.00870089657203276
6.294,0.008297551904259801
6.296,0.008426217598786857
6.298,0.011491249284937704
6.3,0.015898242406864025
6.302,0.020352743484503038
6.304,0.02635415391581964
6.306,0.030695561499999108
6.308,0.03480544076084018
6.31,0.03684516692195104
6.312,0.03757051533169396
6.314,0.03703925907492012
6.316,0.03727839213382593
6.318,0.03701168573148313
6.32,0.03950681973677832
6.322,0.04355408112867591
6.324,0.049554297965365555
6.326,0.0566794136523289
6.328,0.06406998685835584
6.33,0.0700387706358644
6.332,0.07524935503449975
6.334,0.0778329253610726
6.336,0.07940263691097103
6.338,0.08093559307369917
6.34,0.0835237328130649
6.342,0.08804232763000633
6.344,0.09483105266816752
6.346,0.10450435338174502
6.348,0.11498666709976971
6.35,0.1248014269674258
6.352,0.1345489847454791
6.354,0.14042247758841728
6.356,0.14457058977621867
6.358,0.14814719879710223
6.36,0.15098851256610876
6.362,0.15599704202536102
6.364,0.16343667028191478
6.366,0.17340130316171315
6.368,0.18567956952211837
6.37,0.19810519900930007
6.372,0.20830107455741717
6.374,0.2155628173678597
6.376,0.21955183397536834
6.378,0.22051576468997816
6.38,0.21991716268446126
6.382,0.22057312698760195
6.384,0.22360587141793475
6.386,0.23059712753087316
6.388,0.23928433557091416
6.39,0.24994619497307546
6.392,0.2583661586503831
6.394,0.26303267338433794
6.396,0.2631260429823753
6.398,0.25790255076592056
6.4,0.2513014468536844
6.402,0.2448928169497901
6.404,0.24254359997786581
6.406,0.24230273000262215
6.408,0.24494096583973995
6.41,0.24734463329214834
6.412,0.24564078994559524
6.414,0.23764607575035882
6.416,0.22309448201324245
6.418,0.2041681421619299
6.42,0.18310947015993265
6.422,0.16303947429125215
6.424,0.1464144714560158
6.426,0.13570210654643133
6.428,0.1297864595338863
6.43,0.12434362479131233
6.432,0.11806271311574042
6.434,0.10626184668987786
6.436,0.08829025464969881
6.438,0.06717974439995149
6.44,0.044287514531944794
6.442,0.024053512407025406
6.444,0.011334466192711222
6.446,0.006942933272897578
6.448,0.00994768193290025
6.45,0.01700674686839872
6.452,0.0226137956661211
6.454,0.02079061747587018
6.456,0.009586758725797999
6.458,-0.00918194143564615
6.46,-0.03123698028584352
6.462,-0.05106935585530613
6.464,-0.0636347103006579
6.466,-0.06687082482292557
6.468,-0.06046516290670544
6.47,-0.04758544996985485
6.472,-0.034679417224382614
6.474,-0.026800977094242714
6.476,-0.027096079911198064
6.478,-0.035016624449049634
6.48,-0.048551460237826395
6.482,-0.0623774757030521
6.484,-0.07148832901322105
6.486,-0.07268391378888406
6.488,-0.0673641146893443
6.49,-0.05533980611688816
6.492,-0.04374752665413552
6.494,-0.03548911657870391
6.496,-0.03378810016526831
6.498,-0.03939942421036202
6.5,-0.04875354619217809
6.502,-0.057960277013281665
6.504,-0.06327829433769448
6.506,-0.06349216457880463
6.508,-0.058687811181602295
6.51,-0.05115554527560416
6.512,-0.04448235520838002
6.514,-0.04119464786015728
6.516,-0.04446788726755328
6.518,-0.0513772151718962
6.52,-0.060945828413042025
6.522,-0.06794315971632191
6.524,-0.07210981721668527
6.526,-0.07034215275541542
6.528,-0.06340440176601023
6.53,-0.05392962214528417
6.532,-0.044743024737637235
6.534,-0.037787829912381436
6.536,-0.03606445638912423
6.538,-0.03996648794637646
6.54,-0.04723044910175085
6.542,-0.054480541760491656
6.544,-0.06113532748617016
6.546,-0.06332820529436314
6.548,-0.06151288941190854
6.55,-0.0565621368539231
6.552,-0.05036368242068468
6.554,-0.04409567146742978
6.556,-0.040461503978290424
6.558,-0.04015281490848347
6.56,-0.04170376318752496
6.562,-0.04574746909046275
6.564,-0.04954599549469423
6.566,-0.05358695939292871
6.568,-0.05504285783154697
6.57,-0.05496152834387735
6.572,-0.05216243644600375
6.574,-0.04991142605384813
6.576,-0.04650395476927122
6.578,-0.0448919189054839
6.58,-0.044451358808563365
6.582,-0.04593025912268569
6.584,-0.048561357369785105
6.586,-0.05228980811869957
6.588,-0.05405262906060264
6.59,-0.05504927545385338
6.592,-0.0539510038335895
6.594,-0.050005698578302865
6.596,-0.04600641206889359
6.598,-0.04211225686113007
6.6,-0.03854369490778001
6.602,-0.03821669406231035
6.604,-0.03941763316347659
6.606,-0.042633676850334354
6.608,-0.047625981000038044
6.61,-0.05276386551990832
6.612,-0.05554454251629435
6.614,-0.055138539412184516
6.616,-0.05076302249299266
6.618,-0.04571894964874762
6.62,-0.040032575740520375
6.622,-0.03778629605339353
6.624,-0.03835538770572812
6.626,-0.0438306569502679
6.628,-0.05186762985533075
6.63,-0.060063833888209794
6.632,-0.06477113899243003
6.634,-0.06407185966649007
6.636,-0.0595581988387984
6.638,-0.05159882025709761
6.64,-0.04394863326093677
6.642,-0.03880120224895216
6.644,-0.03860720751698888
6.646,-0.044097074761500966
6.648,-0.05289774477394069
6.65,-0.06192973107343322
6.652,-0.06748045114407067
6.654,-0.06858149673698087
6.656,-0.06317760955634523
6.658,-0.054626247725716566
6.66,-0.04529993130787614
6.662,-0.03939811576356541
6.664,-0.03838605291799999
6.666,-0.045642592460692556
6.668,-0.056845808002249164
6.67,-0.06836493419834737
6.672,-0.07655106105260545
6.674,-0.07746829185424037
6.676,-0.0704188417339167
6.678,-0.05766950740956895
6.68,-0.043071743632453564
6.682,-0.03268174102792758
