Time,Data
0.0,0.010236536477620507
0.001,0.034045268586832746
0.002,0.06327827113546658
0.003,0.08009091881150388
0.004,0.07142776086421421
0.005,0.04135576698508353
0.006,0.0010464668816328414
0.007,-0.0395868992782464
0.008,-0.08453228486471205
0.009,-0.12649028577849375
0.01,-0.15771627454139933
0.011,-0.1797534181584819
0.012,-0.1909389612423013
0.013,-0.1856078763527361
0.014,-0.16197130886770025
0.015,-0.11970243906906672
0.016,-0.08030973932576663
0.017,-0.04840919344947114
0.018,-0.022018092854551242
0.019,-0.006982635445846438
0.02,-0.008622697830758386
0.021,-0.01863593272376677
0.022,-0.02825772146904634
0.023,-0.04763174638087093
0.024,-0.07031506848968677
0.025,-0.09282618750935143
0.026,-0.11414607701331439
0.027,-0.12509890149647368
0.028,-0.13156667758455584
0.029,-0.13552457289586392
0.03,-0.13191452170815318
0.031,-0.1153989337798355
0.032,-0.09804988692127871
0.033,-0.07803111061025511
0.034,-0.058321468724164424
0.035,-0.037512645229020744
0.036,-0.02469454602234191
0.037,-0.025423897139298074
0.038,-0.0267581868268237
0.039,-0.028330528059394563
0.04,-0.036441485482732634
0.041,-0.05115002168154703
0.042,-0.0633548858328202
0.043,-0.07586693415050849
0.044,-0.084479286892606
0.045,-0.09304411776615173
0.046,-0.10556184203646886
0.047,-0.10828155339493856
0.048,-0.10280292355075267
0.049,-0.09316215235374777
0.05,-0.08188052749491082
0.051,-0.07095549316452976
0.052,-0.0607813086252919
0.053,-0.05099839307092467
0.054,-0.04328498420725628
0.055,-0.029118639574655415
0.056,-0.016545103509488717
0.057,-0.023995488337023335
0.058,-0.03518817325726418
0.059,-0.04013954748774982
0.06,-0.04728963252544204
0.061,-0.061727978292663105
0.062,-0.07748602396602096
0.063,-0.0888482429323115
0.064,-0.08762884754755847
0.065,-0.07836505766760493
0.066,-0.07239148630390191
0.067,-0.05878075667610283
0.068,-0.04015928686017765
0.069,-0.024429787980332733
0.07,-0.010449099508872132
0.071,-0.0027182207580779506
0.072,0.0008608452707216202
0.073,0.002119168560144317
0.074,-0.002376241082885008
0.075,-0.010448798792457092
0.076,-0.019542450919691146
0.077,-0.032011546959083266
0.078,-0.03741647166369403
0.079,-0.034771231691001415
0.08,-0.03569941107678378
0.081,-0.03847302569103667
0.082,-0.029931221813489856
0.083,-0.018298133127265602
0.084,-0.012937298619422291
0.085,-0.011090544749185983
0.086,-0.009650389576725957
0.087,-0.013006921602553121
0.088,-0.02199460420885016
0.089,-0.033944776933513186
0.09,-0.03782967083831336
0.091,-0.04846732992117684
0.092,-0.05874689901812551
0.093,-0.0598318842769336
0.094,-0.06230516780624341
0.095,-0.06223217076067515
0.096,-0.06413485906472213
0.097,-0.06588596671310115
0.098,-0.06054669147734244
0.099,-0.049179760399461835
0.1,-0.04967191182463663
0.101,-0.054595592765056884
0.102,-0.053130358224963745
0.103,-0.057052293190532295
0.104,-0.0647873302077146
0.105,-0.07751398573539976
0.106,-0.08929450360526235
0.107,-0.0972114348907797
0.108,-0.10748904238564262
0.109,-0.11658448288136083
0.11,-0.11624086569131428
0.111,-0.1175012969357002
0.112,-0.11668849917615984
0.113,-0.11235775847889297
0.114,-0.11023173519035216
0.115,-0.10112466687657148
0.116,-0.0898616822152418
0.117,-0.09019739066857783
0.118,-0.08973740132807508
0.119,-0.08886722326055303
0.12,-0.0966947667114831
0.121,-0.10601453971212732
0.122,-0.1133024952487525
0.123,-0.12174929699000654
0.124,-0.13033594995928938
0.125,-0.13494940939755642
0.126,-0.13652785863980485
0.127,-0.1342174337668185
0.128,-0.13351622115373316
0.129,-0.12837921091693397
0.13,-0.11126080683495164
0.131,-0.09507972748378749
0.132,-0.08510373939099382
0.133,-0.0777665581447264
0.134,-0.07644355736566272
0.135,-0.07622352603674551
0.136,-0.06971794671548144
0.137,-0.07094555843777467
0.138,-0.0783183010642768
0.139,-0.08173680541322098
0.14,-0.09278258822520578
0.141,-0.10897416299028835
0.142,-0.11703963886236766
0.143,-0.12515251416289302
0.144,-0.12908214364139686
0.145,-0.12322551058211981
0.146,-0.12050997737587262
0.147,-0.117183272577299
0.148,-0.11653168785279902
0.149,-0.11958491572173775
0.15,-0.12087194816381112
0.151,-0.12828492966611363
0.152,-0.13808752148139858
0.153,-0.14407468616178123
0.154,-0.14185758341714225
0.155,-0.13821739290490898
0.156,-0.14145203992703723
0.157,-0.14263502900738187
0.158,-0.14171807275755105
0.159,-0.1414376094994588
0.16,-0.1370248176301297
0.161,-0.12776182194867888
0.162,-0.12446457902303355
0.163,-0.12799698694895958
0.164,-0.13392487463618624
0.165,-0.1414001495147545
0.166,-0.14632645199348082
0.167,-0.14580450489966235
0.168,-0.1357976906243943
0.169,-0.10890763433597536
0.17,-0.0611165760743194
0.171,0.001653839421331236
0.172,0.08829555064655213
0.173,0.19465765332353627
0.174,0.29709044567638615
0.175,0.3983234441542317
0.176,0.4965413853428856
0.177,0.5754736242975126
0.178,0.6332954348359178
0.179,0.681159884054827
0.18,0.7242347487350123
0.181,0.7642020022144039
0.182,0.8052736736117818
0.183,0.8508700174236389
0.184,0.916176431347942
0.185,1.0068301006514646
0.186,1.1189776522895172
0.187,1.2588907860512337
0.188,1.4112358401525806
0.189,1.5429806452251877
0.19,1.6608075561906677
0.191,1.7648060802114462
0.192,1.8331601686502665
0.193,1.8485359466149982
0.194,1.819918739048404
0.195,1.7627375489861004
0.196,1.6682358561573063
0.197,1.53017880646301
0.198,1.3761051979742882
0.199,1.2434165869808427
0.2,1.1506295903589605
0.201,1.0910941022480718
0.202,1.0384029561537487
0.203,0.9866006183642316
0.204,0.9461603989664967
0.205,0.9095658774841726
0.206,0.8592266606803085
0.207,0.7904001906629766
0.208,0.6897906530873398
0.209,0.5685532682394174
0.21,0.4425371123469765
0.211,0.28973326476862876
0.212,0.1150335256944729
0.213,-0.039476533565893805
0.214,-0.15638880685310022
0.215,-0.2416834738552331
0.216,-0.28998912254017367
0.217,-0.28518700424639076
0.218,-0.23627393089182666
0.219,-0.17553042637360705
0.22,-0.12116126588815597
0.221,-0.0666630464760252
0.222,-0.025212968159282537
0.223,-0.002358707306666247
0.224,0.00477473467250793
0.225,-0.00835411540163359
0.226,-0.03117234329747753
0.227,-0.06997685565333604
0.228,-0.11923157627141936
0.229,-0.1579289520118142
0.23,-0.17476807839261374
0.231,-0.17994823667379478
0.232,-0.17945806810683035
0.233,-0.16684027694697226
0.234,-0.14851013141134
0.235,-0.12678461404951696
0.236,-0.10482386840808122
0.237,-0.09069064424885674
0.238,-0.0796979269057567
0.239,-0.0751486100130982
0.24,-0.08748830454612398
0.241,-0.10781013192922947
0.242,-0.12558475417628215
0.243,-0.13345210279432781
0.244,-0.13490920437338413
0.245,-0.13675991666217552
0.246,-0.13824938185061592
0.247,-0.12787584552714998
0.248,-0.1129403638521706
0.249,-0.10894699253591246
0.25,-0.10899223913908983
0.251,-0.1042784672388192
0.252,-0.10185356496420134
0.253,-0.10962631261860784
0.254,-0.1226452916035038
0.255,-0.13457211211762152
0.256,-0.13823911642601994
0.257,-0.14016569098494694
0.258,-0.13491868434703375
0.259,-0.1202381526685787
0.26,-0.11190166153982394
0.261,-0.10635732363824991
0.262,-0.09720548386624939
0.263,-0.09364104845058802
0.264,-0.08797634664602681
0.265,-0.09034675436218695
0.266,-0.10466212688191809
0.267,-0.11881487490968301
0.268,-0.13110139077155575
0.269,-0.14276887222829682
0.27,-0.1485736694956633
0.271,-0.15023534665461918
0.272,-0.14269288784800332
0.273,-0.12811103639086055
0.274,-0.11263680492760011
0.275,-0.09595782138889165
0.276,-0.07575466587880127
0.277,-0.06316041969005717
0.278,-0.06133811800697953
0.279,-0.06826143555950906
0.28,-0.08274122220284494
0.281,-0.0936894554047895
0.282,-0.10056342432103746
0.283,-0.11589654467104879
0.284,-0.12480549898983448
0.285,-0.12436961965600495
0.286,-0.11380602752905475
0.287,-0.09940706053945729
0.288,-0.08725591842464867
0.289,-0.07978195536807763
0.29,-0.07324934566629193
0.291,-0.06828544499957277
0.292,-0.07154572931207659
0.293,-0.08258294154546063
0.294,-0.09594528825321195
0.295,-0.10748117759176946
0.296,-0.11678586502696667
0.297,-0.1256970483385334
0.298,-0.12673754514329974
0.299,-0.1204152407059778
0.3,-0.1123207331227455
0.301,-0.09700506355225577
0.302,-0.07866483979399733
0.303,-0.06670072067494447
0.304,-0.06323984550035663
0.305,-0.06171859809130759
0.306,-0.06560825444602464
0.307,-0.06733577407095537
0.308,-0.0784117515039748
0.309,-0.10073573855413699
0.31,-0.10701430849791398
0.311,-0.10920627474068484
0.312,-0.11790631454087117
0.313,-0.12359306786275517
0.314,-0.11369708691489389
0.315,-0.10148143781749379
0.316,-0.09076544896635566
0.317,-0.08755237634370915
0.318,-0.08263867734076565
0.319,-0.07228313881427165
0.32,-0.07599874221470417
0.321,-0.08450258661659184
0.322,-0.08982554544415
0.323,-0.09655077374227101
0.324,-0.10512540534437413
0.325,-0.1141776211477379
0.326,-0.11477375763540079
0.327,-0.11556613960367404
0.328,-0.11980793601311449
0.329,-0.12224074035430148
0.33,-0.11488736260358824
0.331,-0.10880087472298322
0.332,-0.10882762536573704
0.333,-0.1064357652507252
0.334,-0.10264364392158751
0.335,-0.09905841822781888
0.336,-0.10100987462963171
0.337,-0.10574344997241555
0.338,-0.10762426232067772
0.339,-0.10330308378765693
0.34,-0.10080548988463231
0.341,-0.09952431715411116
0.342,-0.0931186118828157
0.343,-0.08834417979114248
0.344,-0.08985671603357315
0.345,-0.0950348016684461
0.346,-0.09886547426800088
0.347,-0.09792073883129965
0.348,-0.10043256972826158
0.349,-0.100451370159016
0.35,-0.09805357061585805
0.351,-0.09055237159702921
0.352,-0.08866417527401677
0.353,-0.08859234798608609
0.354,-0.08700762566409095
0.355,-0.07892685355071141
0.356,-0.06851395074285903
0.357,-0.06284416638189758
0.358,-0.057681105294644784
0.359,-0.05231381190069948
0.36,-0.05748887353128301
0.361,-0.06345268336109423
0.362,-0.0660959353672352
0.363,-0.07217103243780837
0.364,-0.0755379118454928
0.365,-0.07038801215921865
0.366,-0.06540087961279245
0.367,-0.06380214427543303
0.368,-0.061312196150918714
0.369,-0.05399745492385764
0.37,-0.042055893319390976
0.371,-0.03258134331835707
0.372,-0.029354511566316462
0.373,-0.025702027866239065
0.374,-0.022449845540491575
0.375,-0.025977245757879217
0.376,-0.031356907609273336
0.377,-0.03854937943703086
0.378,-0.04061032282813907
0.379,-0.038867979010598235
0.38,-0.04003632656177183
0.381,-0.04024434835934069
0.382,-0.033980268601639385
0.383,-0.021967479144250946
0.384,-0.01200233152919181
0.385,-0.013790296510883458
0.386,-0.011815109032765782
0.387,-0.0022661873970905616
0.388,0.0029647767762870218
0.389,0.0012231921884227404
0.39,0.003986038864297166
0.391,0.0067394533714474165
0.392,0.0028693946336934006
0.393,0.0045902035154691935
0.394,0.011925090948739536
0.395,0.015738932746247474
0.396,0.01581056861448833
0.397,0.01692226717585504
0.398,0.018940371605992608
0.399,0.028864181991249554
0.4,0.03282903952019233
0.401,0.032062113300098304
0.402,0.0358024266557047
0.403,0.03720692763745682
0.404,0.036269277522803955
0.405,0.0417761451376798
0.406,0.045317415733023544
0.407,0.04735369892647342
0.408,0.04332988013538127
0.409,0.033810725117558754
0.41,0.032606911505433565
0.411,0.025859428834833494
0.412,0.010057545762491044
0.413,-2.0810192622263913e-05
0.414,-0.0024402268008377292
0.415,-0.0052875663976666605
0.416,-0.005864565504088273
0.417,-0.010852044270142028
0.418,-0.013407917266614573
0.419,-0.00617321042566698
0.42,-0.00217864317684174
0.421,-0.0006652784634092996
0.422,0.001148196921243266
0.423,-0.0006939446668240521
0.424,-0.0036853073464142654
0.425,-0.010742348320768293
0.426,-0.024200354387084257
0.427,-0.031925181004608276
0.428,-0.04152169156355596
0.429,-0.05659928480727978
0.43,-0.06604206422668116
0.431,-0.06522899402991765
0.432,-0.06515852159984618
0.433,-0.06745095379698707
0.434,-0.07422659655403606
0.435,-0.07488322088685387
0.436,-0.06881745226415885
0.437,-0.06714670747995102
0.438,-0.06548866919252476
0.439,-0.06484376292143507
0.44,-0.0726049632065647
0.441,-0.08669284386680833
0.442,-0.09778760800627942
0.443,-0.10360940659937853
0.444,-0.10618794326173882
0.445,-0.10506443459108161
0.446,-0.10538311776037464
0.447,-0.09985278031900709
0.448,-0.0925863715538952
0.449,-0.08785282178067653
0.45,-0.08179419417635635
0.451,-0.07716912026116583
0.452,-0.07817835567730835
0.453,-0.07841120036853849
0.454,-0.08092597373259941
0.455,-0.0834490705366811
0.456,-0.08865141269115143
0.457,-0.09444385726344828
0.458,-0.09422808955042745
0.459,-0.08804793957622367
0.46,-0.08460629747442806
0.461,-0.08114073652941063
0.462,-0.07318078127847094
0.463,-0.06023521887780694
0.464,-0.05547353394327283
0.465,-0.062468036557713186
0.466,-0.07505186709782602
0.467,-0.08232501287745288
0.468,-0.091810428038846
0.469,-0.10973147432961046
0.47,-0.13035658195456104
0.471,-0.14534254477844147
0.472,-0.14500728091118847
0.473,-0.13347642031344173
0.474,-0.12367302850221165
0.475,-0.11415108486572445
0.476,-0.1088046342381609
0.477,-0.10750944799107492
0.478,-0.10176750435184806
0.479,-0.10042391645894615
0.48,-0.11151129138150301
0.481,-0.12425093348717256
0.482,-0.13620905890547488
0.483,-0.1455756273938533
0.484,-0.15850968639485058
0.485,-0.169482958821853
0.486,-0.1735550783155016
0.487,-0.16952881822988303
0.488,-0.16095861078235543
0.489,-0.14701536152944028
0.49,-0.13423890871824223
0.491,-0.12523073769567922
0.492,-0.11834959471468574
0.493,-0.11346971173337729
0.494,-0.11684642664460922
0.495,-0.12111048594715497
0.496,-0.12438535620376506
0.497,-0.12849713068845087
0.498,-0.13222915518016753
0.499,-0.13056669522211448
0.5,-0.13688186622009335
0.501,-0.13802418530906074
0.502,-0.13130389229375658
0.503,-0.12537873417071715
0.504,-0.12007509901085946
0.505,-0.11918698780612022
0.506,-0.1152988673306077
0.507,-0.10667075352801213
0.508,-0.10820798117837271
0.509,-0.11451781494249495
0.51,-0.1120350151928653
0.511,-0.10918318013853348
0.512,-0.10753146921709936
0.513,-0.10290861537575989
0.514,-0.10044722862168372
0.515,-0.09554857858148208
0.516,-0.09377727674705696
0.517,-0.09671209976264604
0.518,-0.09178973563838688
0.519,-0.0871800874160078
0.52,-0.09472452153542259
0.521,-0.09895377023460397
0.522,-0.09518345775838633
0.523,-0.0976667253012571
0.524,-0.10376945055932689
0.525,-0.10912736446149611
0.526,-0.11074748501948921
0.527,-0.09802814058273733
0.528,-0.08768987880264607
0.529,-0.09362976078514726
0.53,-0.09572938231086198
0.531,-0.09365836947015105
0.532,-0.09771736924567552
0.533,-0.10875700089592956
0.534,-0.11519333715652863
0.535,-0.11811961251356957
0.536,-0.12249253863025443
0.537,-0.13735455199696123
0.538,-0.14204437632133335
0.539,-0.1363495854531298
0.54,-0.1385663244662773
0.541,-0.13745068296019172
0.542,-0.12706935534091737
0.543,-0.11657921009635737
0.544,-0.11398143383104525
0.545,-0.11790243534662996
0.546,-0.12544911113861945
0.547,-0.12617117727689603
0.548,-0.13114108601184896
0.549,-0.13713720088518094
0.55,-0.13689366945920178
0.551,-0.13436559011357405
0.552,-0.1339538864777951
0.553,-0.12864181888140366
0.554,-0.12001284174466319
0.555,-0.11114393076810021
0.556,-0.0993944823369189
0.557,-0.090132977144004
0.558,-0.08545711828759711
0.559,-0.08796518413841821
0.56,-0.09162635406374571
0.561,-0.09877776420491668
0.562,-0.11225013582415574
0.563,-0.125597353413251
0.564,-0.1313838543926487
0.565,-0.1354716124609188
0.566,-0.13624838213811474
0.567,-0.13075076530077065
0.568,-0.1266571074299241
0.569,-0.12915179496506446
0.57,-0.1226887141223072
0.571,-0.11570204663331589
0.572,-0.11232303613550704
0.573,-0.1141597588506581
0.574,-0.11918367976842678
0.575,-0.12174468448996369
0.576,-0.1267099665817002
0.577,-0.1356970714641047
0.578,-0.14635269271544932
0.579,-0.14462025376460433
0.58,-0.13594251428166035
0.581,-0.13235958885168006
0.582,-0.13248477725136504
0.583,-0.12236582169803406
0.584,-0.10826237868030679
0.585,-0.10238688501523864
0.586,-0.10766236226826144
0.587,-0.10354593291841896
0.588,-0.10095213974440961
0.589,-0.11028882337311957
0.59,-0.11659489097591495
0.591,-0.11874870221773352
0.592,-0.12570220697545748
0.593,-0.13369202963193366
0.594,-0.1353849636891638
0.595,-0.13193022800850973
0.596,-0.12691099242583118
0.597,-0.12920874568694496
0.598,-0.1298116268584296
0.599,-0.12160831626212013
0.6,-0.11821052336026594
0.601,-0.1188395214057626
0.602,-0.12029747196868339
0.603,-0.1240258081539434
0.604,-0.13123473811077707
0.605,-0.13707382567164547
0.606,-0.1378064253459225
0.607,-0.13895173371643552
0.608,-0.13336681289961
0.609,-0.13425497694906946
0.61,-0.12910315727975372
0.611,-0.12056568818134879
0.612,-0.1163222446529885
0.613,-0.11794141342939311
0.614,-0.12277809854262041
0.615,-0.11692374033860085
0.616,-0.11121551497391587
0.617,-0.11729732606814246
0.618,-0.12671452830986857
0.619,-0.12901825845371687
0.62,-0.12685511129488883
0.621,-0.13402338947016101
0.622,-0.14148668277481813
0.623,-0.1403466216064416
0.624,-0.13378655608410736
0.625,-0.1320042800616037
0.626,-0.1361533285002074
0.627,-0.13430866463836932
0.628,-0.1334648471747128
0.629,-0.13356511377419242
0.63,-0.12655077846868326
0.631,-0.1194142862424111
0.632,-0.11623780772362512
0.633,-0.11420283752672654
0.634,-0.11456404430767332
0.635,-0.11459067777348288
0.636,-0.10748860179463289
0.637,-0.10832291506036905
0.638,-0.11196318931681845
0.639,-0.11006977696459305
0.64,-0.11013096399349388
0.641,-0.11054881296965667
0.642,-0.10975909612888433
0.643,-0.10936078088200318
0.644,-0.10722568669865865
0.645,-0.10256070184130342
0.646,-0.09790336999389362
0.647,-0.09004520958541282
0.648,-0.0858930101046011
0.649,-0.08929306232579558
0.65,-0.09185340081613412
0.651,-0.09380210536185071
0.652,-0.09991444261015162
0.653,-0.10752884240879415
0.654,-0.11265381928320042
0.655,-0.12114863716327857
0.656,-0.13094392551348402
0.657,-0.13925832147093228
0.658,-0.138766014401002
0.659,-0.12767843927994285
0.66,-0.12371988498180675
0.661,-0.1259982204396143
0.662,-0.12079389065387619
0.663,-0.10830813419909717
0.664,-0.10142110557513898
0.665,-0.10850994008169905
0.666,-0.11436561783846629
0.667,-0.11522785237063536
0.668,-0.11893308714162397
0.669,-0.1251470264061908
0.67,-0.12563496412589883
0.671,-0.12651445998527788
0.672,-0.12643767651449245
0.673,-0.11466457336923895
0.674,-0.10001042706457709
0.675,-0.09367725140641218
0.676,-0.08600318709753235
0.677,-0.0781816097211561
0.678,-0.07200873295422118
0.679,-0.06871321343480731
0.68,-0.0739046289520142
0.681,-0.07965305556189385
0.682,-0.07868440819659822
0.683,-0.08065151734072225
0.684,-0.08242434731962119
0.685,-0.08433792802490325
0.686,-0.08134464805410853
0.687,-0.07203700947289049
0.688,-0.06353382035198743
0.689,-0.05525153628579942
0.69,-0.0456070347706288
0.691,-0.04171330147747349
0.692,-0.044132021465636585
0.693,-0.04773622147583924
0.694,-0.05371401198919803
0.695,-0.06271561160695756
0.696,-0.06911613567509439
0.697,-0.07534225323709252
0.698,-0.07819685923518328
0.699,-0.06911534398319473
0.7,-0.06130008763116821
0.701,-0.05670387395332892
0.702,-0.046863137271491453
0.703,-0.036612185766551016
0.704,-0.030733633530620048
0.705,-0.026613331345399366
0.706,-0.02496748211420463
0.707,-0.030695521284247934
0.708,-0.046887635797786424
0.709,-0.06898551227447261
0.71,-0.08306514859560603
0.711,-0.09118725440779103
0.712,-0.10174844168650453
0.713,-0.11776731627312002
0.714,-0.12105327305312977
0.715,-0.10822926552878849
0.716,-0.09360817709636177
0.717,-0.0909499398048914
0.718,-0.09014785130779651
0.719,-0.0809036918263826
0.72,-0.07645048914109857
0.721,-0.08636983414868162
0.722,-0.09453044257080362
0.723,-0.09815063627100859
0.724,-0.10796455236632997
0.725,-0.12345461916417949
0.726,-0.1411041739761097
0.727,-0.14862506862117197
0.728,-0.1501246677396491
0.729,-0.15019202969137402
0.73,-0.14890050467807844
0.731,-0.14173961952243866
0.732,-0.12849983692036518
0.733,-0.11713788198932339
0.734,-0.10764781634015767
0.735,-0.09695546908382097
0.736,-0.08584383357506548
0.737,-0.07990757748345166
0.738,-0.07752842381366379
0.739,-0.07586130023906026
0.74,-0.08182386889877553
0.741,-0.09408800731229618
0.742,-0.10407870480450768
0.743,-0.11499104163817238
0.744,-0.1228372372403211
0.745,-0.13053208028360416
0.746,-0.13701673932369413
0.747,-0.13940981212609033
0.748,-0.14216338772506204
0.749,-0.14319411831814569
0.75,-0.13395760043470092
0.751,-0.11944025603071201
0.752,-0.10805611109800375
0.753,-0.10045422621988305
0.754,-0.09726233616343709
0.755,-0.09580902434739767
0.756,-0.09387625061248732
0.757,-0.10353329886148188
0.758,-0.11509133437903793
0.759,-0.12119634972197264
0.76,-0.13205122871949235
0.761,-0.1447304577201296
0.762,-0.15152961000931334
0.763,-0.15128121802852937
0.764,-0.14957206167100018
0.765,-0.1498143910114914
0.766,-0.14215221681067128
0.767,-0.12121795016234994
0.768,-0.1077872045726132
0.769,-0.10440327912910352
0.77,-0.1030520459906318
0.771,-0.10395987890900665
0.772,-0.10656275912920965
0.773,-0.10765833936273357
0.774,-0.11671197393515109
0.775,-0.1252513677686402
0.776,-0.12426091272011007
0.777,-0.1254819663566037
0.778,-0.12354146926980157
0.779,-0.11986605732796866
0.78,-0.12438560061605443
0.781,-0.13207921841025932
0.782,-0.12245747874654316
0.783,-0.11009706231405249
0.784,-0.10734237162020187
0.785,-0.11426103966082334
0.786,-0.11789120550864282
0.787,-0.1047569151327178
0.788,-0.07656652458801953
0.789,-0.042960827205664534
0.79,0.008845848226274006
0.791,0.08868024189003852
0.792,0.18338885605686064
0.793,0.28022271730282367
0.794,0.36958963609352097
0.795,0.4580564053938648
0.796,0.5324223711279472
0.797,0.5846565367455989
0.798,0.6285009552752601
0.799,0.6735941173602707
0.8,0.7150517177468817
0.801,0.7585438913663967
0.802,0.8080086230789489
0.803,0.8702205923375821
0.804,0.9514763788944561
0.805,1.0516505201720943
0.806,1.1788211290205401
0.807,1.3275670149267973
0.808,1.4539172391274817
0.809,1.5528109456653747
0.81,1.6398236299951263
0.811,1.6938560030984458
0.812,1.7014762840916826
0.813,1.6686590799372134
0.814,1.5987660364918956
0.815,1.4877475029751803
0.816,1.3516862803208718
0.817,1.2119277462898055
0.818,1.101121769353846
0.819,1.0305247700207734
0.82,0.9718696333123582
0.821,0.9190133582232936
0.822,0.8884346282678933
0.823,0.8565009025926171
0.824,0.8182852458612464
0.825,0.7706128297062182
0.826,0.6999746357212567
0.827,0.5919694539568621
0.828,0.4520206027310205
0.829,0.30724516381806033
0.83,0.16550661516834378
0.831,0.00882823390342394
0.832,-0.14254243921941742
0.833,-0.251068991002624
0.834,-0.313517931670666
0.835,-0.3219316723542338
0.836,-0.28682478687111573
0.837,-0.23558958645738787
0.838,-0.1822404252087563
0.839,-0.1297424240598056
0.84,-0.09123844706214805
0.841,-0.06049664280500933
0.842,-0.03984961083044341
0.843,-0.04479646337700569
0.844,-0.07331081115982516
0.845,-0.1147659490176152
0.846,-0.15327816773232963
0.847,-0.18220029025149034
0.848,-0.20548181161445084
0.849,-0.217650476195196
0.85,-0.20725339130083412
0.851,-0.1847061852175294
0.852,-0.1616139787597006
0.853,-0.1367256176443162
0.854,-0.11074451191576973
0.855,-0.09223500994244242
0.856,-0.08383142921071231
0.857,-0.0958859615782325
0.858,-0.10459734964423924
0.859,-0.11556420510680196
0.86,-0.1356247883617822
0.861,-0.1567947122995434
0.862,-0.16710412869735028
0.863,-0.16816678216185238
0.864,-0.16637691878487645
0.865,-0.15371212005469706
0.866,-0.1422031807095191
0.867,-0.13019909448515382
0.868,-0.12759289788999323
0.869,-0.13117586088171052
0.87,-0.13525423982556817
0.871,-0.14960264114138527
0.872,-0.17075438666721704
0.873,-0.188557884384778
0.874,-0.20087368421428536
0.875,-0.20226043790417741
0.876,-0.19950407655508415
0.877,-0.19288096169299992
0.878,-0.1801041073912016
0.879,-0.1559690529749134
0.88,-0.13577828928268867
0.881,-0.12466747872744041
0.882,-0.11897432704310941
0.883,-0.11577892315627818
0.884,-0.11470596663713724
0.885,-0.12402323492254014
0.886,-0.14600901495006624
0.887,-0.16250695519188607
0.888,-0.17555090161745165
0.889,-0.1849316415511522
0.89,-0.1785935170597781
0.891,-0.163787420139125
0.892,-0.1609590281439171
0.893,-0.15440596691018155
0.894,-0.13478343710010765
0.895,-0.11556549569313673
0.896,-0.10557355124755195
0.897,-0.10866466280156538
0.898,-0.11663478180005768
0.899,-0.12334471566300645
0.9,-0.1300296779656907
0.901,-0.1407167157647296
0.902,-0.15265541199733698
0.903,-0.16166936457344896
0.904,-0.15535775477833516
0.905,-0.14811236907176004
0.906,-0.14195739349031142
0.907,-0.136257837553732
0.908,-0.13336930258564778
0.909,-0.136311540869454
0.91,-0.13553932452693584
0.911,-0.1308591584745831
0.912,-0.13050538279604013
0.913,-0.13335230099785403
0.914,-0.1362084314394585
0.915,-0.134121475235663
0.916,-0.12462173470885742
0.917,-0.11884732550526726
0.918,-0.11352275737037233
0.919,-0.10279672183215531
0.92,-0.09197739372006618
0.921,-0.0872269255499315
0.922,-0.08328592616821713
0.923,-0.08029166176028484
0.924,-0.08373223257185979
0.925,-0.09154800947233528
0.926,-0.09535818726368957
0.927,-0.0947619506016256
0.928,-0.09264679856321441
0.929,-0.09143479940758388
0.93,-0.08821131107254533
0.931,-0.0817069050011772
0.932,-0.07613601026148914
0.933,-0.07292783984267244
0.934,-0.0744093323646006
0.935,-0.07351075313130458
0.936,-0.07355980158710604
0.937,-0.08821059859036172
0.938,-0.10252405611045987
0.939,-0.10418244950104726
0.94,-0.10979096126338002
0.941,-0.12119920924150586
0.942,-0.12177073121320713
0.943,-0.12053927243382223
0.944,-0.12121522262145973
0.945,-0.12303838360005712
0.946,-0.12250727327397336
0.947,-0.11604293813780328
0.948,-0.11266062594345144
0.949,-0.12472219019990342
0.95,-0.1308257091360602
0.951,-0.13285990294845557
0.952,-0.14421565409205278
0.953,-0.15311282585020736
0.954,-0.1539749853810582
0.955,-0.15277314068292808
0.956,-0.15226478718097378
0.957,-0.14207547295571463
0.958,-0.12560242130053922
0.959,-0.1027567381562857
0.96,-0.0925946067938818
0.961,-0.0949114905238391
0.962,-0.09488172719235373
0.963,-0.08881720781914704
0.964,-0.08809486456189655
0.965,-0.10526842674498199
0.966,-0.12734245854680823
0.967,-0.1271538308439043
0.968,-0.12478427733439058
0.969,-0.14092191471332394
0.97,-0.1441006410457677
0.971,-0.12477173871751107
0.972,-0.11219640993840592
0.973,-0.11018416873060734
0.974,-0.09973252525656134
0.975,-0.08164203065730183
0.976,-0.07218386906123855
0.977,-0.07388443951119435
0.978,-0.08146572502465783
0.979,-0.0819472958084707
0.98,-0.08588255316070864
0.981,-0.0966752223574029
0.982,-0.10390753919755469
0.983,-0.09861178899880493
0.984,-0.09543141307773538
0.985,-0.09664333552901404
0.986,-0.09004379090132915
0.987,-0.07772908396818493
0.988,-0.0658241851066628
0.989,-0.059221441181896456
0.99,-0.05338724125439703
0.991,-0.04627751398491886
0.992,-0.04637742686947299
0.993,-0.04885236087496444
0.994,-0.04677240467234133
0.995,-0.04035664634056077
0.996,-0.028179813974099466
0.997,-0.019292982767529044
0.998,-0.01722994743934303
0.999,-0.012896956244624721
1.0,-0.0123700013756393
1.001,-0.00864490918254894
1.002,-0.0033964591191695944
1.003,-0.004801299995575028
1.004,-0.01046587380126025
1.005,-0.01847788308213749
1.006,-0.028572998280806953
1.007,-0.03138333015599201
1.008,-0.03671613839273214
1.009,-0.048804201251247854
1.01,-0.052474736262932586
1.011,-0.04520054830558975
1.012,-0.03402157973805727
1.013,-0.022352012114799483
1.014,-0.01671179273412306
1.015,-0.012436941080414113
1.016,-0.014427034428983462
1.017,-0.0229801404383967
1.018,-0.03374700590765249
1.019,-0.03281153395608847
1.02,-0.035878773509102665
1.021,-0.05053022601147293
1.022,-0.05749364368716083
1.023,-0.0578731087751247
1.024,-0.05829507061658867
1.025,-0.05794481325025245
1.026,-0.05749132818989555
1.027,-0.04792167279555617
1.028,-0.03432371533250586
1.029,-0.030665075288613935
1.03,-0.02461444828682907
1.031,-0.016440062722993275
1.032,-0.017001564150482432
1.033,-0.019830425185595336
1.034,-0.02427477680082593
1.035,-0.025671523659337146
1.036,-0.026504435534643177
1.037,-0.029512249785636664
1.038,-0.03172418175579078
1.039,-0.027418356267218155
1.04,-0.02701727330569186
1.041,-0.03094920515487219
1.042,-0.02851203403848608
1.043,-0.02977481362201651
1.044,-0.04054266155021759
1.045,-0.04539479790159885
1.046,-0.04078737367630129
1.047,-0.0401964662154639
1.048,-0.045266101207387895
1.049,-0.05492392388152795
1.05,-0.05743381559170607
1.051,-0.05236891186978913
1.052,-0.04650695410904908
1.053,-0.0446684891829648
1.054,-0.050532815230494854
1.055,-0.058473334827788305
1.056,-0.06445136525275899
1.057,-0.0739958071336936
1.058,-0.0802777752992987
1.059,-0.08726828784728578
1.06,-0.10094802913135514
1.061,-0.10852536683481331
1.062,-0.10561524527955553
1.063,-0.10133834934137631
1.064,-0.10231583796154513
1.065,-0.10255675378037105
1.066,-0.10025833155683779
1.067,-0.09355886857752929
1.068,-0.09229428606213015
1.069,-0.09581033062637273
1.07,-0.09887210180895517
1.071,-0.1036931751416315
1.072,-0.11508194381169522
1.073,-0.12167803805648282
1.074,-0.12523203186689166
1.075,-0.12587135436099903
1.076,-0.11429673105819002
1.077,-0.10886651139101587
1.078,-0.10054838271809544
1.079,-0.08574478193231891
1.08,-0.07702432061664716
1.081,-0.07881136903590222
1.082,-0.08109544783018405
1.083,-0.08021919118956154
1.084,-0.08178883404512327
1.085,-0.09972734242928237
1.086,-0.11946220747594416
1.087,-0.1292131982115676
1.088,-0.1383253854050356
1.089,-0.15158351460193922
1.09,-0.1584471550299682
1.091,-0.15816128311497973
1.092,-0.15572100131151917
1.093,-0.1466971380263557
1.094,-0.13895596940295346
1.095,-0.13732607504260835
1.096,-0.13527462598438433
1.097,-0.14665258463227746
1.098,-0.15955417666958913
1.099,-0.1633135876363461
1.1,-0.1716357080783449
1.101,-0.191833066084074
1.102,-0.2061225589955309
1.103,-0.21292656358778783
1.104,-0.21512480623646266
1.105,-0.21521516337765412
1.106,-0.21436056140776866
1.107,-0.19932129206872043
1.108,-0.17929288576750232
1.109,-0.16268523990059477
1.11,-0.14688632272877153
1.111,-0.13305256813322075
1.112,-0.12695898668927597
1.113,-0.12392751975084282
1.114,-0.12183564785497784
1.115,-0.1251922661089766
1.116,-0.1252572713498904
1.117,-0.1291768817743424
1.118,-0.1341086568247638
1.119,-0.1373173058517083
1.12,-0.14023242160683635
1.121,-0.14246954401392278
1.122,-0.14682395061833212
1.123,-0.1542505662610095
1.124,-0.15084281861507057
1.125,-0.1418187939764679
1.126,-0.1385163226781316
1.127,-0.13139183527330847
1.128,-0.12501312254489316
1.129,-0.1270350414469762
1.13,-0.12415026334641661
1.131,-0.12001373115382664
1.132,-0.12014793314568156
1.133,-0.12084415124199277
1.134,-0.13508018169777464
1.135,-0.1474758718589103
1.136,-0.15030339433333592
1.137,-0.15555997528428644
1.138,-0.16709850487391553
1.139,-0.17779865821993326
1.14,-0.18675073383249188
1.141,-0.18541892316141653
1.142,-0.17375176564213174
1.143,-0.16121536803586448
1.144,-0.1497383465388286
1.145,-0.13657388465723924
1.146,-0.12810051304711953
1.147,-0.12359584146759692
1.148,-0.12002377278797068
1.149,-0.1158742095255192
1.15,-0.11008502236987051
1.151,-0.11706079494122151
1.152,-0.12478457755862228
1.153,-0.12300123410874103
1.154,-0.12443751842564105
1.155,-0.1330174954674999
1.156,-0.1350336313952063
1.157,-0.13824341593781356
1.158,-0.13687672858037928
1.159,-0.12355710044920348
1.16,-0.11315682742245708
1.161,-0.11261810834170584
1.162,-0.10677757816012327
1.163,-0.10022886594851155
1.164,-0.09724792395154726
1.165,-0.09979115647078352
1.166,-0.10556013858327686
1.167,-0.10711253766687354
1.168,-0.10498980222295139
1.169,-0.11083014308402744
1.17,-0.11644059002129667
1.171,-0.12181310559417269
1.172,-0.12508418966293414
1.173,-0.1304517021274219
1.174,-0.13407340780236265
1.175,-0.13097645838327363
1.176,-0.12600452156793546
1.177,-0.13282006624302395
1.178,-0.13996550417480744
1.179,-0.13797167438443966
1.18,-0.13448913593996867
1.181,-0.12841008991483047
1.182,-0.12494850879972956
1.183,-0.12665359267609755
1.184,-0.1253455985838403
1.185,-0.11598049044407592
1.186,-0.10846691322747859
1.187,-0.11047180916286932
1.188,-0.12425645604753231
1.189,-0.13558121414926927
1.19,-0.14370512725934598
1.191,-0.14948795571350826
1.192,-0.15958093963989997
1.193,-0.165673054298761
1.194,-0.16974598472134136
1.195,-0.17228665512156954
1.196,-0.1684122160910679
1.197,-0.1618780733531972
1.198,-0.15596194025970248
1.199,-0.14424161654757936
1.2,-0.1303062214984659
1.201,-0.12345533350943852
1.202,-0.12444468096002556
1.203,-0.13132954161747734
1.204,-0.139439053927741
1.205,-0.1514896014105044
1.206,-0.1628181923520939
1.207,-0.16769275287466948
1.208,-0.17364035574343564
1.209,-0.1787299352579261
1.21,-0.17675405314299555
1.211,-0.16927334900748475
1.212,-0.16151376602373516
1.213,-0.15513530718786375
1.214,-0.1509162843834357
1.215,-0.14241375646094148
1.216,-0.1356657585925366
1.217,-0.14699298689206816
1.218,-0.15793835175833798
1.219,-0.16135602888088282
1.22,-0.1816325897603863
1.221,-0.1989971969714833
1.222,-0.1988607203967523
1.223,-0.19911829625302566
1.224,-0.19735729559640153
1.225,-0.19193135451340548
1.226,-0.18888730547681976
1.227,-0.1827603573726135
1.228,-0.17027811504638243
1.229,-0.16303112475509052
1.23,-0.1551733530096353
1.231,-0.14920939605181638
1.232,-0.15290774343067362
1.233,-0.1603546472666975
1.234,-0.17513600582972721
1.235,-0.18861045311922559
1.236,-0.19422017728932406
1.237,-0.19877992663324306
1.238,-0.19769013111946354
1.239,-0.18803574014780985
1.24,-0.18255498092114655
1.241,-0.17848725132734836
1.242,-0.16833191439208114
1.243,-0.16256561471854064
1.244,-0.16437207111337565
1.245,-0.16743421847202392
1.246,-0.1718252127706181
1.247,-0.17301505174273676
1.248,-0.18198739443104286
1.249,-0.19844088184529918
1.25,-0.20803462639506756
1.251,-0.20963106810292384
1.252,-0.21149194087780834
1.253,-0.21839374869630962
1.254,-0.21864552124332887
1.255,-0.21001034459162948
1.256,-0.1945496228423624
1.257,-0.1814220409457695
1.258,-0.17667560959516027
1.259,-0.17207019432343765
1.26,-0.1729602112696715
1.261,-0.1742545764400223
1.262,-0.17545616750712406
1.263,-0.18376886375391835
1.264,-0.1932492019636779
1.265,-0.1999735698517177
1.266,-0.20219135180732456
1.267,-0.19343915434301445
1.268,-0.18459986542033133
1.269,-0.18190095328401643
1.27,-0.18485702310889776
1.271,-0.18017038667529003
1.272,-0.1736089641103287
1.273,-0.16888264342082204
1.274,-0.15953741847917735
1.275,-0.14988195909399057
1.276,-0.14795486936174135
1.277,-0.15353401413629242
1.278,-0.15718306733742707
1.279,-0.1563256905276044
1.28,-0.15833493245162053
1.281,-0.16262461963024993
1.282,-0.16773045552059856
1.283,-0.16837085028952548
1.284,-0.15848069090798944
1.285,-0.14921488577507552
1.286,-0.14892220746802454
1.287,-0.150093416529491
1.288,-0.151290633473856
1.289,-0.1530672062869464
1.29,-0.15588866475497554
1.291,-0.16206553874625865
1.292,-0.16670767831402372
1.293,-0.17270720601569098
1.294,-0.1807535047421245
1.295,-0.18037907951925136
1.296,-0.1820303363675571
1.297,-0.19315305865581694
1.298,-0.2012794251552204
1.299,-0.20310246782337416
1.3,-0.20452528422255226
1.301,-0.19467606094708337
1.302,-0.1778855346474748
1.303,-0.17063001269482525
1.304,-0.16344933037888063
1.305,-0.15585392535343984
1.306,-0.14923755570856095
1.307,-0.1368114965737129
1.308,-0.12657232039585053
1.309,-0.1243092104805773
1.31,-0.11764930847987469
1.311,-0.10913229622816562
1.312,-0.10429972464819665
1.313,-0.10478170778560122
1.314,-0.106364137568899
1.315,-0.10602349107632063
1.316,-0.10792284241677635
1.317,-0.10937054220172372
1.318,-0.10775058205330038
1.319,-0.10643935458523816
1.32,-0.11172616092176572
1.321,-0.11475385199050793
1.322,-0.11649162003281499
1.323,-0.12174510914766229
1.324,-0.12420114276684388
1.325,-0.13149714369235183
1.326,-0.14230027729378458
1.327,-0.14537953447081406
1.328,-0.14365573855382877
1.329,-0.14421938248814758
1.33,-0.14231317248377154
1.331,-0.13628363303196775
1.332,-0.13151248880855537
1.333,-0.12634242832847267
1.334,-0.12701249152487654
1.335,-0.13161566772763153
1.336,-0.1340860386338375
1.337,-0.1372162166122967
1.338,-0.13969944282165897
1.339,-0.14018596033122954
1.34,-0.14534117543299085
1.341,-0.15289401752410217
1.342,-0.15566742471049047
1.343,-0.15758801147985843
1.344,-0.16267733836695955
1.345,-0.16703140088144966
1.346,-0.1657969188081996
1.347,-0.16015227913790842
1.348,-0.15829784282271628
1.349,-0.16445571863404965
1.35,-0.16387442711199462
1.351,-0.16383059498914215
1.352,-0.1666190913994132
1.353,-0.17252534782848972
1.354,-0.17577866546892398
1.355,-0.1774919625894123
1.356,-0.1805999242805694
1.357,-0.18981197988040202
1.358,-0.20259734279444488
1.359,-0.21221564651150698
1.36,-0.22279869503649222
1.361,-0.23547783395390426
1.362,-0.2355396821977303
1.363,-0.22658316885723936
1.364,-0.21964560052155968
1.365,-0.21426670131192604
1.366,-0.20246781593002966
1.367,-0.18663780953108292
1.368,-0.17633522579075425
1.369,-0.17103448785554007
1.37,-0.16285845588021655
1.371,-0.16234702013007143
1.372,-0.17230935803594466
1.373,-0.17879557436843507
1.374,-0.18720328430939379
1.375,-0.1985097633800778
1.376,-0.20459531268160616
1.377,-0.21060355746055517
1.378,-0.20827389480533068
1.379,-0.18918294783597847
1.38,-0.16984604692985641
1.381,-0.160654270025272
1.382,-0.15165302324015337
1.383,-0.14419868428935817
1.384,-0.1325543288980101
1.385,-0.12449885056090325
1.386,-0.125022789852146
1.387,-0.1291686482510435
1.388,-0.1400460904878825
1.389,-0.15801848264161386
1.39,-0.17402343785436844
1.391,-0.18196337554476197
1.392,-0.19408818514547263
1.393,-0.20229404968350315
1.394,-0.2072802036104966
1.395,-0.20753542222275514
1.396,-0.20216222003016457
1.397,-0.195581457322678
1.398,-0.18618581795116984
1.399,-0.1770216565635175
1.4,-0.17257227953384463
1.401,-0.16969280476097112
1.402,-0.1607119678989198
1.403,-0.15467700251804178
1.404,-0.15268267828346754
1.405,-0.15620281485473686
1.406,-0.1613378074926331
1.407,-0.15390688049057366
1.408,-0.142346563371175
1.409,-0.14442086148363983
1.41,-0.1507945206399277
1.411,-0.15655843918138546
1.412,-0.16281662935186847
1.413,-0.16244136669769946
1.414,-0.16707615594250205
1.415,-0.1674189450551893
1.416,-0.15375933897590757
1.417,-0.1346851750476084
1.418,-0.10482826058981477
1.419,-0.0514970390829043
1.42,0.025948053765666772
1.421,0.11908207569229885
1.422,0.22180765363433907
1.423,0.32011571904407465
1.424,0.4151021653593928
1.425,0.5030673130599453
1.426,0.5634943611128597
1.427,0.6017100911210148
1.428,0.6340770656849867
1.429,0.6716448901564308
1.43,0.7222855177126749
1.431,0.7744363426274639
1.432,0.8256560180272118
1.433,0.8992450666099274
1.434,1.0021856991461593
1.435,1.1356101765787179
1.436,1.2829208408521466
1.437,1.4125719703578612
1.438,1.5324038960408137
1.439,1.6453153743992575
1.44,1.7209909907336878
1.441,1.7373803624349455
1.442,1.7156603768803995
1.443,1.6654958975753722
1.444,1.5735342209029604
1.445,1.4462030442379372
1.446,1.303006633131565
1.447,1.1786073499164993
1.448,1.0860223852850603
1.449,1.0152499343822965
1.45,0.9545672442863976
1.451,0.909627282438531
1.452,0.8753416942279902
1.453,0.8464000911911859
1.454,0.8091642516844488
1.455,0.7486105523131619
1.456,0.6589865465994799
1.457,0.5428992375943703
1.458,0.408653740053048
1.459,0.2677932850815793
1.46,0.11293099836269344
1.461,-0.048914376314950554
1.462,-0.18518409867524335
1.463,-0.2685224545271971
1.464,-0.3011015729617814
1.465,-0.2903121600532718
1.466,-0.2567200695720979
1.467,-0.2023190146061088
1.468,-0.13423108872927894
1.469,-0.07609774046682732
1.47,-0.0314491289723734
1.471,0.0006672267916719306
1.472,0.00957387402766176
1.473,-0.002763982187361512
1.474,-0.031098634468053617
1.475,-0.06979938843079665
1.476,-0.11110828473955674
1.477,-0.15151576788664392
1.478,-0.18201142301124848
1.479,-0.19500018124871554
1.48,-0.1917450397118761
1.481,-0.1712888123352495
1.482,-0.1359021296409185
1.483,-0.10618558366715486
1.484,-0.09200681256942296
1.485,-0.08147053164728157
1.486,-0.06410012539678869
1.487,-0.04935925910589105
1.488,-0.0615721673643085
1.489,-0.09722584384393843
1.49,-0.1275704140422758
1.491,-0.1383871169712779
1.492,-0.14677363196476767
1.493,-0.1598055145579086
1.494,-0.17096637812135737
1.495,-0.1742900012172744
1.496,-0.16021413610822585
1.497,-0.13619756354594695
1.498,-0.11718981193487737
1.499,-0.10106122949164677
1.5,-0.09509821285762292
1.501,-0.09264687852918838
1.502,-0.0859540627319771
1.503,-0.08821482710759934
1.504,-0.1017984170978884
1.505,-0.11159636046871822
1.506,-0.11942120892109202
1.507,-0.1223835162850903
1.508,-0.12618642083531953
1.509,-0.13229792346849836
1.51,-0.12598574889485764
1.511,-0.11222361745175741
1.512,-0.10149682798021603
1.513,-0.08154679686078282
1.514,-0.061097928938673184
1.515,-0.05160681653160814
1.516,-0.04706527274784356
1.517,-0.04787755553210997
1.518,-0.053820608140814914
1.519,-0.05608588453758948
1.52,-0.06239317827167875
1.521,-0.07716091554969802
1.522,-0.08871322123758066
1.523,-0.10050123531552205
1.524,-0.10031439931391306
1.525,-0.08945692771198939
1.526,-0.08586601830641427
1.527,-0.07915231572977503
1.528,-0.06255032903664401
1.529,-0.039776966850068256
1.53,-0.019809304084722208
1.531,-0.008606436210945674
1.532,-0.00481239830880117
1.533,-0.006484941849647135
1.534,-0.010896121209220365
1.535,-0.021443759125335696
1.536,-0.033698013005717876
1.537,-0.054586211405684315
1.538,-0.0816951676374465
1.539,-0.10364761969210454
1.54,-0.11949281798565733
1.541,-0.1240443807114127
1.542,-0.11210355367950946
1.543,-0.10052293288442075
1.544,-0.09009213100028192
1.545,-0.07225831708494385
1.546,-0.05472525692976724
1.547,-0.044998454977311496
1.548,-0.0399562798271177
1.549,-0.04552464726519833
1.55,-0.05251580019491579
1.551,-0.06066273641585237
1.552,-0.07384513242222022
1.553,-0.09446693313071652
1.554,-0.11391705205284249
1.555,-0.12402858070740955
1.556,-0.12045187958243106
1.557,-0.10987313953565427
1.558,-0.10003946191351493
1.559,-0.0755885323073838
1.56,-0.04771831219993415
1.561,-0.02976247678533944
1.562,-0.018754585950307816
1.563,-0.01706478597061588
1.564,-0.02417710527107315
1.565,-0.031646373730581254
1.566,-0.03923739626512556
1.567,-0.04721266176004227
1.568,-0.04770593958257038
1.569,-0.05210341973402738
1.57,-0.05435464373058081
1.571,-0.05015202302883727
1.572,-0.0429466176600169
1.573,-0.034802882242067075
1.574,-0.02512887694456855
1.575,-0.019343906927958825
1.576,-0.01655742531998741
1.577,-0.0213289565670401
1.578,-0.027559814679942476
1.579,-0.025537716287817102
1.58,-0.02912149235993393
1.581,-0.038022327666132116
1.582,-0.03711694562411299
1.583,-0.03072142683256957
1.584,-0.026763328540353657
1.585,-0.0198124859889855
1.586,-0.011962373408979989
1.587,-0.006587315380452526
1.588,-0.015028863237033443
1.589,-0.034281120182058054
1.59,-0.04674602420630033
1.591,-0.05011517987184882
1.592,-0.06040776469287927
1.593,-0.07416009178252689
1.594,-0.08172890391554861
1.595,-0.08564470246204585
1.596,-0.08393908156744177
1.597,-0.08037400926132304
1.598,-0.07252065538295245
1.599,-0.05866670735244882
1.6,-0.0475675722435544
1.601,-0.03909068816978473
1.602,-0.030826073938067227
1.603,-0.02774497316636471
1.604,-0.0269799077373287
1.605,-0.03377520552041938
1.606,-0.040622025775997286
1.607,-0.03655333784400241
1.608,-0.02854031205833169
1.609,-0.023909380463716413
1.61,-0.016693634981690707
1.611,-0.00484462237837397
1.612,0.0007414253962286921
1.613,0.012391005786539063
1.614,0.03498251041965823
1.615,0.05637148459781666
1.616,0.06882585075667744
1.617,0.07038212406184975
1.618,0.06304914488805352
1.619,0.05881658273265244
1.62,0.05246514965637275
1.621,0.04721594188807744
1.622,0.04828926401310346
1.623,0.045461887273734014
1.624,0.04771211710083226
1.625,0.06602421394681585
1.626,0.08039131101701145
1.627,0.09101568324532655
1.628,0.10366532808615346
1.629,0.11511448769709005
1.63,0.11857933498584163
1.631,0.12706181203569436
1.632,0.13053403423258558
1.633,0.12492861342718703
1.634,0.10593982348380078
1.635,0.08767855497098433
1.636,0.08325272028977307
1.637,0.07835843143405302
1.638,0.07896331892829286
1.639,0.08814290540206186
1.64,0.09009849620718312
1.641,0.09034751424309304
1.642,0.1030424291525798
1.643,0.11834953554234216
1.644,0.1318087497298445
1.645,0.13460206149191375
1.646,0.1256795435048833
1.647,0.12272307202450777
1.648,0.12596234310504392
1.649,0.12288805864656775
1.65,0.11892702784739709
1.651,0.11314945780773901
1.652,0.10006910903691855
1.653,0.10557473052181877
1.654,0.1190013833309096
1.655,0.120319535920387
1.656,0.11339484493912437
1.657,0.10825760944651061
1.658,0.10732078232457092
1.659,0.112498849872127
1.66,0.11220360328499508
1.661,0.1012213763017043
1.662,0.08850328532575
1.663,0.07791939844298194
1.664,0.07703534680835648
1.665,0.08396410962959065
1.666,0.08132797152735281
1.667,0.078340035873412
1.668,0.07798697943054986
1.669,0.07627119247510039
1.67,0.07145636304990158
1.671,0.06925912058436462
1.672,0.0639409247803718
1.673,0.058276445379580495
1.674,0.051402359888512
1.675,0.04357765962185477
1.676,0.044907137507389276
1.677,0.04408908600196421
1.678,0.04124415611728933
1.679,0.046865556993552604
1.68,0.05290484666837332
1.681,0.05497805947982177
1.682,0.058650253994451465
1.683,0.06273861305527995
1.684,0.061569014468503214
1.685,0.05312982096976147
1.686,0.03908778416805673
1.687,0.030660009026478925
1.688,0.022366719816998802
1.689,0.011715502285055966
1.69,0.007883143250049887
1.691,0.005462713017586486
1.692,-0.0006693525147044682
1.693,-0.004336132272116936
1.694,0.00010555194904247856
1.695,0.008046646811836098
1.696,0.014965251770385738
1.697,0.012752975932968525
1.698,0.00695912336910601
1.699,0.002899886468710321
1.7,-0.006392669667538371
1.701,-0.024373842684946495
1.702,-0.030301837341384568
1.703,-0.02960173226958553
1.704,-0.027202999451771157
1.705,-0.02078009175101097
1.706,-0.011844573632215572
1.707,-0.0006670018191957184
1.708,0.00895876329635491
1.709,0.018063932574984915
1.71,0.02289759550337489
1.711,0.02628592993475211
1.712,0.029885605952292917
1.713,0.027279444815675572
1.714,0.013893058389335659
1.715,-0.002253859419000901
1.716,-0.02191561636469851
1.717,-0.046038694198382524
1.718,-0.060150897774023215
1.719,-0.052647823299626056
1.72,-0.03892249517327185
1.721,-0.031313636929727044
1.722,-0.021881940543813018
1.723,-0.016055357484880836
1.724,-0.016207926823885443
1.725,-0.018247779610812472
1.726,-0.02428699424950254
1.727,-0.03444992291435313
1.728,-0.049850877720697434
1.729,-0.06974172568073952
1.73,-0.08180067183848201
1.731,-0.08951049235112549
1.732,-0.10356145403872438
1.733,-0.1132128167237748
1.734,-0.11155663542522615
1.735,-0.09564609059532896
1.736,-0.06847398090168709
1.737,-0.04281101445547388
1.738,-0.01693416118619002
1.739,0.01371037686125535
1.74,0.035858600474878474
1.741,0.043745076528409824
1.742,0.051342946054946687
1.743,0.055499117925822204
1.744,0.04795126764397717
1.745,0.029228383349919354
1.746,0.00945005599476873
1.747,-0.009949580066286205
1.748,-0.03353988707978181
1.749,-0.05521627342641251
1.75,-0.055488999351591246
1.751,-0.042702507263650887
1.752,-0.034155436882089156
1.753,-0.030100805741211004
1.754,-0.019618424553376305
1.755,0.0006331563446268319
1.756,0.020761309218770316
1.757,0.025040852671375843
1.758,0.02232003576746306
1.759,0.02537186067228179
1.76,0.016133115152225447
1.761,-0.013215558974675674
1.762,-0.043355118542597486
1.763,-0.06911848102114389
1.764,-0.09393478648586165
1.765,-0.11636796705382209
1.766,-0.1366686827030267
1.767,-0.13424932007435747
1.768,-0.10499741017415609
1.769,-0.07636400277288649
1.77,-0.0531978202963624
1.771,-0.021338238072968217
1.772,0.00997685123896331
1.773,0.030796340926720178
1.774,0.042120833072388314
1.775,0.045431289312142555
1.776,0.0319840605857743
1.777,0.002812125536716394
1.778,-0.02957775280554961
1.779,-0.05276833653067008
1.78,-0.08016401547977949
1.781,-0.10476703191369093
1.782,-0.1128619436084187
1.783,-0.10348584307591423
1.784,-0.0785980957005817
1.785,-0.05291626161124296
1.786,-0.03244488237015846
1.787,-0.001779804024730038
1.788,0.028687938524222138
1.789,0.03852593861691998
1.79,0.03283691218362784
1.791,0.017555735319177097
1.792,-0.009583152994217107
1.793,-0.035396978035463114
1.794,-0.0538547450135779
1.795,-0.06981144139345563
1.796,-0.08573871021063781
1.797,-0.09731802365725528
1.798,-0.09879150455217492
1.799,-0.09201415245366752
1.8,-0.0782095569119873
1.801,-0.058487627964817865
1.802,-0.03222636628362326
1.803,-0.014441900955215898
1.804,-0.004268017489902889
1.805,-0.0006394180809880596
1.806,-0.0022280855267812626
1.807,-0.006628987264672696
1.808,-0.01974108970155185
1.809,-0.04625256365885163
1.81,-0.06412249037913711
1.811,-0.06795819546510107
1.812,-0.07421539911537614
1.813,-0.0851910323090351
1.814,-0.0868261675814286
1.815,-0.08137848307017681
1.816,-0.08005084954417464
1.817,-0.08066921918074174
1.818,-0.07848785585442684
1.819,-0.07016680690814082
1.82,-0.06892314409707168
1.821,-0.06881398086232003
1.822,-0.0650757577813047
1.823,-0.057428720634227375
1.824,-0.04326181522091595
1.825,-0.03264034498892726
1.826,-0.02612082381396657
1.827,-0.014405062800801444
1.828,-0.004907677282922248
1.829,-0.010337811992700643
1.83,-0.02140008210796432
1.831,-0.031699484145846744
1.832,-0.04489377343819827
1.833,-0.058082850855569954
1.834,-0.07136958236824437
1.835,-0.08148250460057799
1.836,-0.07332845734173296
1.837,-0.05734847429588713
1.838,-0.033583620954739275
1.839,-0.004413165250989368
1.84,0.01400532599069486
1.841,0.02349945744672625
1.842,0.0227058540505613
1.843,0.01578986147711679
1.844,-9.161196259816506e-05
1.845,-0.02269276763766402
1.846,-0.06498716636133957
1.847,-0.1048416059435428
1.848,-0.12494023006819599
1.849,-0.13578822191557993
1.85,-0.13760140884654268
1.851,-0.12190312798186968
1.852,-0.08670102137824094
1.853,-0.041194849137292384
1.854,-0.004056973652276202
1.855,0.02258793608602349
1.856,0.04629532293079163
1.857,0.05633023639349268
1.858,0.04739422381680395
1.859,0.02490484415860858
1.86,-0.013232694662193126
1.861,-0.06332484179638849
1.862,-0.10393151039974315
1.863,-0.12905450897661983
1.864,-0.14224692927839241
1.865,-0.14743188240662278
1.866,-0.13327441839849344
1.867,-0.09803657445365381
1.868,-0.056945396890318925
1.869,-0.029197787309113335
1.87,-0.0077955769796244
1.871,0.02056436908096431
1.872,0.02933306806854039
1.873,0.011527758537594617
1.874,-0.022347106194229877
1.875,-0.058850752527938
1.876,-0.09051145231874123
1.877,-0.12090153322990978
1.878,-0.14166755314604698
1.879,-0.14231474829810223
1.88,-0.1325984023292039
1.881,-0.12145691608833972
1.882,-0.09651504769423987
1.883,-0.0672718368264815
1.884,-0.04614870375263954
1.885,-0.03659703645544052
1.886,-0.02844693729829918
1.887,-0.02162397903150419
1.888,-0.02428074165731297
1.889,-0.03730159555442324
1.89,-0.04806122137453885
1.891,-0.05326592977312288
1.892,-0.057692472164733
1.893,-0.051664358192549366
1.894,-0.03216498222399691
1.895,-0.009567245525672684
1.896,0.003956418573187807
1.897,0.010209663376916854
1.898,0.01375863075657261
1.899,0.015551269920621679
1.9,0.003227317071577477
1.901,-0.019956585228918414
1.902,-0.03757842261073294
1.903,-0.052787877470933824
1.904,-0.06517345134241016
1.905,-0.0695722857797157
1.906,-0.06164310847732154
1.907,-0.03706903361234232
1.908,-0.013332507043299644
1.909,0.005905993842070467
1.91,0.02170936709801573
1.911,0.029867271859890118
1.912,0.01779716499149919
1.913,-0.004845778332643391
1.914,-0.03298390604141303
1.915,-0.06940834890893484
1.916,-0.10650213344264717
1.917,-0.13526333081922398
1.918,-0.14943399214514388
1.919,-0.14451625552611408
1.92,-0.1284759280765316
1.921,-0.09999254969220192
1.922,-0.04820192498438943
1.923,0.00602483314005018
1.924,0.048131982045894875
1.925,0.07606210948930621
1.926,0.09134877474302085
1.927,0.0929143339409783
1.928,0.08042595863171857
1.929,0.04814814076984922
1.93,0.002326058371394447
1.931,-0.04077783173429607
1.932,-0.07800870132737737
1.933,-0.10339441681077018
1.934,-0.11097444882538457
1.935,-0.1002384965442167
1.936,-0.07710887581037923
1.937,-0.054488890871397556
1.938,-0.029480061126372813
1.939,0.0025712703572674856
1.94,0.032013160248981785
1.941,0.05464085951288698
1.942,0.06113615543763763
1.943,0.05413373116112216
1.944,0.042930278616337185
1.945,0.026919726961022846
1.946,0.00588478401598386
1.947,-0.018707246006103923
1.948,-0.03926960978374491
1.949,-0.04742703448162297
1.95,-0.0400733521337836
1.951,-0.026176547559232724
1.952,-0.012402597697088232
1.953,0.0043393055308734805
1.954,0.016321238023134038
1.955,0.017300166882179703
1.956,0.02264748427183886
1.957,0.029297914163989483
1.958,0.03655601727363333
1.959,0.04283100665963161
1.96,0.04238370377049446
1.961,0.04016088818745709
1.962,0.03976487409169612
1.963,0.03256712683042788
1.964,0.019933983660110396
1.965,0.0065002149829264284
1.966,-0.007589693519964124
1.967,-0.014547971492231228
1.968,-0.02096877569787239
1.969,-0.03602481426172053
1.97,-0.048804572406583785
1.971,-0.04972131821190381
1.972,-0.04590187178281401
1.973,-0.033460866600829614
1.974,-0.0115862988639854
1.975,0.007599234292751749
1.976,0.02238826028152692
1.977,0.02798732463378949
1.978,0.02806638648937791
1.979,0.0312435692129412
1.98,0.026398525025343716
1.981,0.008740020159966139
1.982,-0.0033966814303727916
1.983,-0.017989888159669024
1.984,-0.03992421616704603
1.985,-0.05661584046749314
1.986,-0.06353964167016621
1.987,-0.05654503078604196
1.988,-0.04688948750664326
1.989,-0.03997743958159342
1.99,-0.0308547741471468
1.991,-0.014562565486731825
1.992,-0.008485809093574926
1.993,-0.016836651138287813
1.994,-0.02838537577792379
1.995,-0.03550127024359995
1.996,-0.04049991834424533
1.997,-0.04922729214991755
1.998,-0.055758449231681224
1.999,-0.05506128837606781
2.0,-0.051480075121576534
2.001,-0.04792906430663547
2.002,-0.03474653175406905
2.003,-0.01223153074325063
2.004,0.013045457484172266
2.005,0.029015900554032897
2.006,0.030806827426122438
2.007,0.0222036120252528
2.008,0.009776040889050285
2.009,-0.01036952410113899
2.01,-0.04017094865788682
2.011,-0.06441194609161895
2.012,-0.07358325221311252
2.013,-0.07662584588803555
2.014,-0.07339934043325448
2.015,-0.048772493146769284
2.016,-0.013309051919532033
2.017,0.012394739602664613
2.018,0.027591998206747934
2.019,0.04131053796063666
2.02,0.041134769406158116
2.021,0.02468477467566492
2.022,-0.0013060723621366379
2.023,-0.03333195392904794
2.024,-0.060805305232644775
2.025,-0.08395692937518519
2.026,-0.09876218058351721
2.027,-0.09870495479262573
2.028,-0.09422550477443517
2.029,-0.08876450097890567
2.03,-0.07040040733283234
2.031,-0.03916231825244379
2.032,-0.012167905814830232
2.033,0.0032283162023670118
2.034,0.0040952438916802576
2.035,-0.0017443350975646418
2.036,-0.007778665341601476
2.037,-0.018246105758213883
2.038,-0.03384474099386697
2.039,-0.045548958652887245
2.04,-0.05634523289180908
2.041,-0.060716605880053516
2.042,-0.0547608387326099
2.043,-0.04890931686018591
2.044,-0.04030492321491073
2.045,-0.023977287982241587
2.046,-0.010005069458872562
2.047,0.002134926413501438
2.048,0.010866429331091797
2.049,0.007367774814355659
2.05,0.013985710757009896
2.051,0.0473135529878168
2.052,0.09812027569169546
2.053,0.15836217228265892
2.054,0.23250544793544706
2.055,0.3293350046717039
2.056,0.44333080711485995
2.057,0.5525766362160088
2.058,0.6540503439441797
2.059,0.7490542947894013
2.06,0.8194996317057889
2.061,0.8587698508525806
2.062,0.9029581465394935
2.063,0.9533876040799016
2.064,0.9924623011472165
2.065,1.028033674399728
2.066,1.0815725785676278
2.067,1.169490831530623
2.068,1.2939439646113624
2.069,1.4383692380132425
2.07,1.586882588208845
2.071,1.7234987136886721
2.072,1.836980075282752
2.073,1.9319939540208944
2.074,1.9931872869495013
2.075,1.9977917545658668
2.076,1.9464478923390416
2.077,1.8410740719731875
2.078,1.69377933661425
2.079,1.5299961915779738
2.08,1.3791571426454725
2.081,1.2643287067392555
2.082,1.1892310300622673
2.083,1.1270064523573466
2.084,1.0839675910328308
2.085,1.0593789339455573
2.086,1.0291380887348625
2.087,0.9900585962315709
2.088,0.9333461432698414
2.089,0.8438246067158122
2.09,0.7295141899156314
2.091,0.5952823806991014
2.092,0.4374574655335117
2.093,0.2634824707414162
2.094,0.09185989448639921
2.095,-0.05523716471362113
2.096,-0.15625643982058235
2.097,-0.20605318641495393
2.098,-0.2018623477945983
2.099,-0.1492987092451189
2.1,-0.07840580475233247
2.101,-0.012945378041251355
2.102,0.05074819665462352
2.103,0.10395347489295832
2.104,0.12339529829258282
2.105,0.11440790217651159
2.106,0.08423976650552481
2.107,0.03947282526547146
2.108,-0.015310433112413193
2.109,-0.06834674202644529
2.11,-0.1116542612730202
2.111,-0.13777890386074632
2.112,-0.14501838371826184
2.113,-0.12292349920929105
2.114,-0.07801477056671743
2.115,-0.021797228567830732
2.116,0.033719859316254173
2.117,0.07171018297134228
2.118,0.09411086189676346
2.119,0.11081529795112006
2.12,0.10828004269449555
2.121,0.07446235283238291
2.122,0.025130136629059614
2.123,-0.029302331055018352
2.124,-0.07518102951687716
2.125,-0.09999664543526783
2.126,-0.10649933861970867
2.127,-0.09835725363108581
2.128,-0.07426372989812517
2.129,-0.04750195522813392
2.13,-0.015072341949670465
2.131,0.02343990766258442
2.132,0.05004337284214766
2.133,0.0593555813970366
2.134,0.05728643842911195
2.135,0.03929006770443457
2.136,0.012166888261995622
2.137,-0.018522891522097597
2.138,-0.05131009289657663
2.139,-0.08077059154645429
2.14,-0.11241532885782445
2.141,-0.13437230268037112
2.142,-0.12476253989032708
2.143,-0.09173084441545457
2.144,-0.05615233007959446
2.145,-0.022086881970142275
2.146,0.0059120874929075
2.147,0.02851492824383516
2.148,0.049246964824953415
2.149,0.056946160503514594
2.15,0.049995326015317414
2.151,0.04031619626991621
2.152,0.02514877146208813
2.153,-0.0003329968589121222
2.154,-0.0365017455779421
2.155,-0.07578154751812619
2.156,-0.10011098548377338
2.157,-0.11431165423888516
2.158,-0.11732664132614173
2.159,-0.09931184958235045
2.16,-0.06957999962448842
2.161,-0.041411501407830266
2.162,-0.006757720550237128
2.163,0.024129344688006787
2.164,0.042101019489749376
2.165,0.05550613508008568
2.166,0.06653143087774911
2.167,0.07344713917201723
2.168,0.07172405461600181
2.169,0.05000055891119778
2.17,0.020894766185867917
2.171,-0.0063231686761091
2.172,-0.031162898345911887
2.173,-0.055396031400436335
2.174,-0.06952248886998118
2.175,-0.06915169699770501
2.176,-0.053236732743436314
2.177,-0.03211783432186593
2.178,-0.008358796764296525
2.179,0.020608187131349903
2.18,0.046981904603406247
2.181,0.06116249356683029
2.182,0.06430455924816068
2.183,0.06176397199793427
2.184,0.0513635980068098
2.185,0.0324308731550847
2.186,0.010596810639772412
2.187,-0.015614412716094303
2.188,-0.042340611611482525
2.189,-0.06799166654957131
2.19,-0.07881459485031544
2.191,-0.07232066055451188
2.192,-0.05950456629250215
2.193,-0.046820876823898856
2.194,-0.024923900915017325
2.195,0.011782917675439581
2.196,0.04771046511339749
2.197,0.06166477180895549
2.198,0.05734848041595489
2.199,0.055701716715933026
2.2,0.05803017793119474
2.201,0.04490555990149714
2.202,0.020862274601726894
2.203,-0.0030520466342103987
2.204,-0.02279217953905287
2.205,-0.03980888644949872
2.206,-0.0534395331084831
2.207,-0.054135558374785606
2.208,-0.04249664802189062
2.209,-0.034115199563452665
2.21,-0.024266128104374857
2.211,-0.0075009910277249
2.212,0.0047818593653356405
2.213,0.014719361902737364
2.214,0.020258252302468645
2.215,0.023283263298233443
2.216,0.023586438143949135
2.217,0.008691490744944803
2.218,-0.004430356168872686
2.219,-0.0037015104908494326
2.22,-0.005278730278260901
2.221,-0.012839639555790382
2.222,-0.004773007834836972
2.223,0.00875183972643572
2.224,0.022841191046452786
2.225,0.04104415252617492
2.226,0.06360053885703483
2.227,0.08872871208875341
2.228,0.1089086982780138
2.229,0.10611846315227849
2.23,0.0919894677951561
2.231,0.08886011761619485
2.232,0.0877206469788247
2.233,0.0770583878503292
2.234,0.061626352118524484
2.235,0.05416893221696101
2.236,0.05114496088883416
2.237,0.046489494125931924
2.238,0.04045117284223188
2.239,0.050532195565520396
2.24,0.06654379291166725
2.241,0.08177329031314366
2.242,0.10124157806133899
2.243,0.11901459505754884
2.244,0.12452177915146559
2.245,0.12483043084461852
2.246,0.11482883969814685
2.247,0.10028293066031438
2.248,0.09274985240442302
2.249,0.08835480150747349
2.25,0.08946089925418332
2.251,0.09528208017596686
2.252,0.10250189426557134
2.253,0.10796399379639184
2.254,0.1104915730376958
2.255,0.12287382788906166
2.256,0.14903029807822615
2.257,0.1813331294479812
2.258,0.20603822442593292
2.259,0.21875436182725613
2.26,0.21386911201529513
2.261,0.20085430751097444
2.262,0.19339200652245742
2.263,0.1722916927322745
2.264,0.14020594749359636
2.265,0.1201885565238286
2.266,0.11216915995262723
2.267,0.10343623618214211
2.268,0.1012216362847348
2.269,0.09946418069288845
2.27,0.10479932188228164
2.271,0.1167817784995576
2.272,0.13930556419481463
2.273,0.16614885672516627
2.274,0.18454676078746235
2.275,0.1896881030368371
2.276,0.1880446612372513
2.277,0.1754707715195565
2.278,0.1560528527191067
2.279,0.1367344107548423
2.28,0.12078393032441156
2.281,0.1072027674672907
2.282,0.1051819580406284
2.283,0.11070832296019005
2.284,0.12239280219891316
2.285,0.14355263530133525
2.286,0.16353157315283842
2.287,0.17719773178994688
2.288,0.19252547233239617
2.289,0.20315216828856375
2.29,0.2078058869639206
2.291,0.20152488466969573
2.292,0.17962962526705778
2.293,0.15445513214246048
2.294,0.1318968308611602
2.295,0.11185794461169235
2.296,0.10270431923721779
2.297,0.09782995946261547
2.298,0.09441419708344949
2.299,0.10541375297495811
2.3,0.12178740065772758
2.301,0.1359063685824179
2.302,0.15206864434533401
2.303,0.15901663436773666
2.304,0.15435862216696397
2.305,0.14481471644803728
2.306,0.13024329398732806
2.307,0.11944723721681076
2.308,0.10980198798435836
2.309,0.08978125904960897
2.31,0.07647469532339704
2.311,0.07919149727338355
2.312,0.08622537578363204
2.313,0.09582316940354065
2.314,0.10735875611862702
2.315,0.11567366271331128
2.316,0.12451391380791765
2.317,0.13397527949398763
2.318,0.13486931859073636
2.319,0.1279400807448012
2.32,0.11589223636433492
2.321,0.09522937782123961
2.322,0.08393863676967338
2.323,0.07708721832525459
2.324,0.07141231720124384
2.325,0.0659853193755172
2.326,0.06601468647986271
2.327,0.07282309810066413
2.328,0.07899927609278777
2.329,0.08069053505119243
2.33,0.08397527032230961
2.331,0.09224042130759143
2.332,0.09648990513289123
2.333,0.09052551081096595
2.334,0.07396831672038408
2.335,0.05112078376645926
2.336,0.04270078747439734
2.337,0.04150287547887834
2.338,0.03605445652582385
2.339,0.030333372820974057
2.34,0.02959909096759928
2.341,0.03036582907007985
2.342,0.03651739227060627
2.343,0.04553612360084725
2.344,0.049797543416100896
2.345,0.048871788054825
2.346,0.04377447960263269
2.347,0.04812231340297516
2.348,0.05216939664232296
2.349,0.04372468442206555
2.35,0.02697371210496521
2.351,0.012244731246246669
2.352,0.004767272903355585
2.353,0.0014690313557904973
2.354,-0.004154157159307812
2.355,-0.007077720999310194
2.356,0.00430094247466111
2.357,0.01528112277120914
2.358,0.017015550837179722
2.359,0.01866970044760073
2.36,0.02855177125522099
2.361,0.034191739979297815
2.362,0.03936190555402796
2.363,0.04904571672174658
2.364,0.04837300983347129
2.365,0.03954562285176947
2.366,0.033776613849424666
2.367,0.03225952949996555
2.368,0.028173311603584945
2.369,0.018716415960817422
2.37,0.011153711754455215
2.371,0.009854387215353314
2.372,0.0032999234368508126
2.373,0.0020482142980950413
2.374,0.005651569803779091
2.375,0.007539897036670564
2.376,0.007892466019070428
2.377,0.009529163901056206
2.378,0.01785276120429253
2.379,0.032866676332580315
2.38,0.0442789741585136
2.381,0.05068541807325952
2.382,0.05380597800083046
2.383,0.055734316660218726
2.384,0.05415198313182102
2.385,0.042460610051379286
2.386,0.024796782886874928
2.387,0.012913850917469416
2.388,0.0009394051912337773
2.389,-0.01695811290542738
2.39,-0.026940086751849435
2.391,-0.019840847764784803
2.392,-0.0054187693332135725
2.393,0.015536572026294812
2.394,0.03427000844565012
2.395,0.051298272412612166
2.396,0.07378732739791515
2.397,0.09101067070947044
2.398,0.09581238534596516
2.399,0.0919943982625379
2.4,0.08055739533808462
2.401,0.06574783088532393
2.402,0.04889571979776874
2.403,0.027063896944083253
2.404,0.002562840851664316
2.405,-0.014590021615534967
2.406,-0.02417597981716225
2.407,-0.018159005818557138
2.408,-0.004880367412286148
2.409,0.005972692984416813
2.41,0.02462288914312369
2.411,0.054643864935054104
2.412,0.07351468538123931
2.413,0.08119622758674887
2.414,0.08063319846228999
2.415,0.07309720443254213
2.416,0.06331245224388135
2.417,0.045341876131096914
2.418,0.011251631966626156
2.419,-0.016390844049103407
2.42,-0.030101977819129697
2.421,-0.04205311236992095
2.422,-0.04753249808253711
2.423,-0.03722152024569418
2.424,-0.021239612727570228
2.425,-0.003951050386602776
2.426,0.0254333848191254
2.427,0.06339270518628835
2.428,0.08668002640956561
2.429,0.08485727883099373
2.43,0.07669145334107334
2.431,0.07234710863928571
2.432,0.05934429942663973
2.433,0.03329053543963132
2.434,0.0024332078465815247
2.435,-0.02189122167814244
2.436,-0.03281806699342789
2.437,-0.035430933995025775
2.438,-0.032074263785005
2.439,-0.024450331257041196
2.44,-0.009485780688497642
2.441,0.006008192690287558
2.442,0.024823098886668643
2.443,0.04190421649755314
2.444,0.04887137256026344
2.445,0.04542088949855379
2.446,0.03754072828080547
2.447,0.029502957819471955
2.448,0.01763583044000469
2.449,-0.0050845642546610975
2.45,-0.026552293854486153
2.451,-0.034069808782439884
2.452,-0.03681368942265351
2.453,-0.03714783423305104
2.454,-0.02873039908724817
2.455,-0.011396421247098705
2.456,0.014163210701249955
2.457,0.03387062292098666
2.458,0.04179632884669334
2.459,0.05066833149428931
2.46,0.052266789476212494
2.461,0.034635962006060894
2.462,0.013076861139032838
2.463,-0.008077916742741468
2.464,-0.027867942788012932
2.465,-0.048217133074350035
2.466,-0.06246549499736455
2.467,-0.06782835336314774
2.468,-0.06670374221473427
2.469,-0.06177517574414659
2.47,-0.03989263363567741
2.471,-0.008753074609131647
2.472,0.010563593280019495
2.473,0.020122424805347004
2.474,0.028633982957300578
2.475,0.03284158454032211
2.476,0.027729497585881214
2.477,0.010517761632520991
2.478,-0.01155361564128491
2.479,-0.02761209874828184
2.48,-0.03964362738409904
2.481,-0.051002139267308816
2.482,-0.055850511063691516
2.483,-0.05245881097740735
2.484,-0.03931131813594283
2.485,-0.025007250195044187
2.486,-0.013975610204629044
2.487,0.0019441563255749089
2.488,0.019982229049177947
2.489,0.029897016544623047
2.49,0.034335629024087246
2.491,0.031038011797135116
2.492,0.014854414838538497
2.493,-0.002421861046984327
2.494,-0.018373501642518303
2.495,-0.04037257662756936
2.496,-0.06201685807586405
2.497,-0.07351609356596538
2.498,-0.0719660338532308
2.499,-0.06246879364519511
2.5,-0.05408502315677112
2.501,-0.04363162562332283
2.502,-0.024363593516757556
2.503,-0.006595974131554673
2.504,0.005670533142102545
2.505,0.00706005998198358
2.506,0.0010207102871468523
2.507,-0.0011151347530832425
2.508,-0.006213448406672263
2.509,-0.02754531973779238
2.51,-0.04508024738519582
2.511,-0.049816443555442604
2.512,-0.05509504784426059
2.513,-0.054849993630418765
2.514,-0.04475729614710879
2.515,-0.030264485336607142
2.516,-0.015499941950467762
2.517,-0.004080051989532259
2.518,0.008153254367533641
2.519,0.027422808794146283
2.52,0.037289865274339466
2.521,0.0358704545807427
2.522,0.03596331535855049
2.523,0.0340719789217856
2.524,0.02131939585741238
2.525,0.006269194073745098
2.526,-0.013318886121684654
2.527,-0.02876241886778071
2.528,-0.03471749595992659
2.529,-0.03838835153433471
2.53,-0.03565344617303673
2.531,-0.030088160142819523
2.532,-0.02787947264349537
2.533,-0.02764425579897538
2.534,-0.025177759447911025
2.535,-0.01817024278620574
2.536,-0.01593565415447101
2.537,-0.022195607255905848
2.538,-0.027954428259939598
2.539,-0.031487587718381296
2.54,-0.04344823190830277
2.541,-0.0630774352604373
2.542,-0.07548627613252473
2.543,-0.0829648952089707
2.544,-0.0882677454760549
2.545,-0.0848266484770937
2.546,-0.07385402650437117
2.547,-0.05131631243445777
2.548,-0.028779277084489276
2.549,-0.020149207280983458
2.55,-0.013352597779853228
2.551,-8.804695708568035e-06
2.552,0.004847431373412314
2.553,-5.5676186730806877e-05
2.554,-0.011180339391768235
2.555,-0.02327389767723089
2.556,-0.028589220442013643
2.557,-0.03519230055796927
2.558,-0.04830228139285676
2.559,-0.057602729994194024
2.56,-0.06646776761061525
2.561,-0.06806201078970157
2.562,-0.05529645098569828
2.563,-0.043649138659504386
2.564,-0.03488479942879526
2.565,-0.022726447141756433
2.566,-0.014540967480249347
2.567,-0.011097715050428489
2.568,-0.014444872466787459
2.569,-0.028925370705019715
2.57,-0.038327008853890045
2.571,-0.038135358428686095
2.572,-0.04183824101965655
2.573,-0.04822097182296294
2.574,-0.046594096975747984
2.575,-0.03890952609998566
2.576,-0.029743928117904547
2.577,-0.025155375456689468
2.578,-0.021444977238992094
2.579,-0.008874373995262414
2.58,-0.0013985451911766717
2.581,-0.0014696304323073349
2.582,-0.0009521494648508139
2.583,-0.0031662931956593695
2.584,-0.013048783285105591
2.585,-0.018395850849854994
2.586,-0.023135425786415517
2.587,-0.022569380546335213
2.588,-0.01653302315694937
2.589,-0.014436717438462915
2.59,-0.01017984136766815
2.591,-0.0009549307524133554
2.592,0.0050161016378163885
2.593,0.005756530818633826
2.594,-0.00024004583299673074
2.595,-0.008884292592766059
2.596,-0.0124947566900158
2.597,-0.01593218852047872
2.598,-0.025837742336043967
2.599,-0.02792507593070428
2.6,-0.026263624592409197
2.601,-0.029490951965349184
2.602,-0.025906202819847325
2.603,-0.018421516471236306
2.604,-0.011378653952367347
2.605,-0.006267588791715804
2.606,-0.0034060070369187376
2.607,-0.005648587942240554
2.608,-0.006190158939231145
2.609,-0.016508019956624303
2.61,-0.03145963672702248
2.611,-0.042518545237866856
2.612,-0.04910079247958524
2.613,-0.05391323060534138
2.614,-0.0562482725049659
2.615,-0.051159141555014685
2.616,-0.042473617665053406
2.617,-0.039638035334546406
2.618,-0.03941983464472272
2.619,-0.032528518600283524
2.62,-0.029234500668741396
2.621,-0.03406846661224701
2.622,-0.03766935848732394
2.623,-0.04981949293872587
2.624,-0.061666522531469106
2.625,-0.06609194244355707
2.626,-0.0681531258547379
2.627,-0.06950762294067883
2.628,-0.06072899418971895
2.629,-0.04844321966932017
2.63,-0.03525012045006795
2.631,-0.01743822938448624
2.632,-0.0015451272752063376
2.633,0.008150767270661725
2.634,0.009104005677723789
2.635,0.006842637126570046
2.636,0.002101381739726216
2.637,-0.013285748952239294
2.638,-0.03971777892761364
2.639,-0.057321706942440806
2.64,-0.06551286475260322
2.641,-0.07450804447102126
2.642,-0.07068632205438395
2.643,-0.054721998144022475
2.644,-0.04245975935656604
2.645,-0.035554796484543
2.646,-0.02694932824282408
2.647,-0.014291515278562086
2.648,-0.0054156435613025855
2.649,-0.01699066139682853
2.65,-0.03240977076932565
2.651,-0.04094370825451324
2.652,-0.049124950788503326
2.653,-0.06728101258065622
2.654,-0.08710279730894926
2.655,-0.09512577903002437
2.656,-0.08501976680504852
2.657,-0.07562376886730297
2.658,-0.07271766294529661
2.659,-0.06258036150467414
2.66,-0.05443241560119278
2.661,-0.05588878947288128
2.662,-0.06054825121217237
2.663,-0.06781852025171242
2.664,-0.07702608467323381
2.665,-0.08879667699683297
2.666,-0.0986301065349873
2.667,-0.09554516942633953
2.668,-0.08464780288602988
2.669,-0.08348458187007401
2.67,-0.07808360313878754
2.671,-0.052648598748583415
2.672,-0.03694716115518904
2.673,-0.03150464391682656
2.674,-0.026766203225088606
2.675,-0.02640858448267593
2.676,-0.030964765426932276
2.677,-0.04487019001828222
2.678,-0.05895841100383184
2.679,-0.0523418539781759
2.68,-0.025528577835445966
2.681,0.011433759621655673
2.682,0.07201635693749192
2.683,0.16967533792736902
2.684,0.28786334180502327
2.685,0.405625575924797
2.686,0.515706685679348
2.687,0.628990215998404
2.688,0.7280169000852209
2.689,0.7872977590541156
2.69,0.81816109065516
2.691,0.8499468418889223
2.692,0.8804755130057933
2.693,0.9108514777042332
2.694,0.93878784420589
2.695,0.9847373187157177
2.696,1.0641614435978926
2.697,1.1742583188945723
2.698,1.3133968065230954
2.699,1.4763849004736718
2.7,1.6305524450080562
2.701,1.7574803401982004
2.702,1.871087150932382
2.703,1.9557125765724457
2.704,1.9828296886218568
2.705,1.9580767580411957
2.706,1.8864151918519574
2.707,1.775372310184243
2.708,1.6334892075935423
2.709,1.4762355797034497
2.71,1.3367493964286743
2.711,1.2477920907290574
2.712,1.1872733830547506
2.713,1.1296004487386102
2.714,1.0859617370768115
2.715,1.060492351829538
2.716,1.0331148086528534
2.717,0.9837334469554432
2.718,0.9094030322933024
2.719,0.8121017487483005
2.72,0.6858131989117445
2.721,0.5387469434949732
2.722,0.3746794293451437
2.723,0.20054929622057208
2.724,0.03356605434452218
2.725,-0.1088324826136879
2.726,-0.20982304612318514
2.727,-0.24753527772300327
2.728,-0.2276786718220198
2.729,-0.17938152719834866
2.73,-0.12330397248627278
2.731,-0.06620914765966239
2.732,-0.007261080154728706
2.733,0.04364864818407661
2.734,0.08026429622624995
2.735,0.10180735365781184
2.736,0.1031863128094245
2.737,0.07758098185737397
2.738,0.035515167622305666
2.739,-0.0053876694591675
2.74,-0.042730141126605004
2.741,-0.08251591179861148
2.742,-0.10998628475972555
2.743,-0.12100528494292553
2.744,-0.1149690223063487
2.745,-0.09330107515286952
2.746,-0.07366312413517034
2.747,-0.057048142992812405
2.748,-0.03392749647360885
2.749,-0.014595468813500805
2.75,-0.005803084816585056
2.751,-0.004709529357006375
2.752,-0.019117258387923018
2.753,-0.04090788224181109
2.754,-0.05656834223158608
2.755,-0.07169408786927814
2.756,-0.08137596069176317
2.757,-0.0934139417637542
2.758,-0.10634467785017328
2.759,-0.108310927999551
2.76,-0.10883132622038184
2.761,-0.10654274667560665
2.762,-0.09298365150178976
2.763,-0.08146763370443387
2.764,-0.07806761572745605
2.765,-0.06970020140218797
2.766,-0.06027385325763288
2.767,-0.05184958719233632
2.768,-0.038761642699938946
2.769,-0.027657697380766053
2.77,-0.020440198989276417
2.771,-0.012116699397000946
2.772,-0.009591310529716209
2.773,-0.012445848840859497
2.774,-0.016764107315480694
2.775,-0.02504492735445926
2.776,-0.02723115817355751
2.777,-0.037856421822742264
2.778,-0.055285503177051616
2.779,-0.06500295909527999
2.78,-0.06589286416586639
2.781,-0.0634530293952203
2.782,-0.05589944943199851
2.783,-0.050138482006830194
2.784,-0.03961071149466402
2.785,-0.029036034456332734
2.786,-0.02310893118504313
2.787,-0.017202234456090964
2.788,-0.017135227486097006
2.789,-0.02604833629090033
2.79,-0.03440503420710289
2.791,-0.034116435517303256
2.792,-0.036760589591940396
2.793,-0.042851358004442654
2.794,-0.05610417167347271
2.795,-0.07364906551282023
2.796,-0.07215409441875911
2.797,-0.060841556575110464
2.798,-0.0524011856392836
2.799,-0.04382412968427009
2.8,-0.03519527137005987
2.801,-0.033486836205463784
2.802,-0.028392706659081512
2.803,-0.02823170170959241
2.804,-0.02693208401453207
2.805,-0.0270923380982751
2.806,-0.02709845936623116
2.807,-0.02826849118300752
2.808,-0.028992414569096753
2.809,-0.03383973266554522
2.81,-0.036616733301146294
2.811,-0.03636793771521192
2.812,-0.03732869740647437
2.813,-0.03384557310821245
2.814,-0.03428613533396958
2.815,-0.03295947065130355
2.816,-0.029063533529160926
2.817,-0.02966717239966489
2.818,-0.03372541061900231
2.819,-0.030118659364906913
2.82,-0.03270177391666589
2.821,-0.04334814786282001
2.822,-0.04697723147807586
2.823,-0.04355986013233555
2.824,-0.053102841296791055
2.825,-0.06562044476189847
2.826,-0.06810414326819704
2.827,-0.0625022345026343
2.828,-0.05971783198228572
2.829,-0.06662803500311142
2.83,-0.0731204329989341
2.831,-0.06913728648555864
2.832,-0.06671437377282728
2.833,-0.06600160455680248
2.834,-0.06525620678891715
2.835,-0.06380579601635496
2.836,-0.06298639578839156
2.837,-0.059067572514442605
2.838,-0.05618144111814322
2.839,-0.05427308928521525
2.84,-0.05708653009459413
2.841,-0.060193202313375604
2.842,-0.05706077354493782
2.843,-0.05315062527234832
2.844,-0.055025089685452715
2.845,-0.049442057439582646
2.846,-0.04441595834206837
2.847,-0.03423024103787884
2.848,-0.024396170768239064
2.849,-0.019564008219145036
2.85,-0.01940299606568624
2.851,-0.010473754506889237
2.852,-0.00411900731420501
2.853,-0.0033953897747836894
2.854,-6.098687641424477e-05
2.855,0.0033781346044857857
2.856,0.0005714026041077887
2.857,-0.006803257503079931
2.858,-0.010170901225017405
2.859,-0.0051685345985168175
2.86,-0.004709327801737254
2.861,-0.00298932173343228
2.862,0.013563900680175812
2.863,0.023388791456744547
2.864,0.018912135224870962
2.865,0.016669489598168274
2.866,0.021397926744502912
2.867,0.02608159021268034
2.868,0.027941155184477134
2.869,0.02637074338842584
2.87,0.02183744766440173
2.871,0.023766803744739048
2.872,0.02844049940184116
2.873,0.025929680471775716
2.874,0.02607905025687927
2.875,0.03254537868262552
2.876,0.04288162153553932
2.877,0.04564737512083791
2.878,0.040520214113351306
2.879,0.03838198981724038
2.88,0.03835954660125582
2.881,0.03480938518616539
2.882,0.030248347426480953
2.883,0.033244634510611625
2.884,0.040292662369693345
2.885,0.04769932375262871
2.886,0.050507208277438806
2.887,0.054472616225923746
2.888,0.06210444325598983
2.889,0.06775677570780941
2.89,0.07475623121420358
2.891,0.08553732227832804
2.892,0.09375714881414249
2.893,0.09736500813396869
2.894,0.09361213605160365
2.895,0.09199966328143992
2.896,0.09917616297704882
2.897,0.10180695064179081
2.898,0.09744319645912891
2.899,0.10541862164494332
2.9,0.11679514864760855
2.901,0.11436779831093093
2.902,0.1137258628580386
2.903,0.12135491531885917
2.904,0.12475535510389094
2.905,0.1275499395520633
2.906,0.12655584949297927
2.907,0.12480557576224452
2.908,0.12651328836780687
2.909,0.12499650128240779
2.91,0.12257370282070279
2.911,0.11846460299698884
2.912,0.11471926496179183
2.913,0.11419560257817296
2.914,0.10559300031063606
2.915,0.0995357991398665
2.916,0.09868736147262198
2.917,0.09586652555983922
2.918,0.08913578184721047
2.919,0.08583533840147668
2.92,0.08154861579952216
2.921,0.07200029995484528
2.922,0.06890447887262756
2.923,0.0687938377144107
2.924,0.06886810948489394
2.925,0.07289894169577883
2.926,0.07421876264892878
2.927,0.08380473267369427
2.928,0.09544869134115838
2.929,0.0949843942275857
2.93,0.09352860937021895
2.931,0.09268631353478515
2.932,0.07667415479106665
2.933,0.06033028016043306
2.934,0.05400016003784981
2.935,0.0443130338217152
2.936,0.02688698295478376
2.937,0.01201744187266546
2.938,0.010410372469010375
2.939,0.0200155420373058
2.94,0.02999800200110131
2.941,0.03286002145346878
2.942,0.041696307603367434
2.943,0.046538180496432276
2.944,0.04872304125162028
2.945,0.05021815267849492
2.946,0.036834306660480105
2.947,0.01828450270979288
2.948,0.010071780020576944
2.949,-0.00677669411084143
2.95,-0.026081729184652763
2.951,-0.035921030668400133
2.952,-0.03699686381674584
2.953,-0.030890833962948592
2.954,-0.018154749890378623
2.955,-0.011217477748817123
2.956,0.000876941287529786
2.957,0.010851731904781128
2.958,0.014628256622527596
2.959,0.016723002330003362
2.96,0.011534082552731735
2.961,-0.0005386837317976814
2.962,-0.01616436552418732
2.963,-0.03432981928728603
2.964,-0.04472009787983339
2.965,-0.04915804212795545
2.966,-0.059019096554725314
2.967,-0.06554195138409366
2.968,-0.06497550078597071
2.969,-0.058533968045920204
2.97,-0.04416879684043955
2.971,-0.028200924744027238
2.972,-0.022883582854856727
2.973,-0.026978726545392885
2.974,-0.02942718043396478
2.975,-0.03317427233131943
2.976,-0.03818278371965256
2.977,-0.05962931843829502
2.978,-0.08424559608019132
2.979,-0.09173931635517311
2.98,-0.09521513772496178
2.981,-0.10251745946351572
2.982,-0.10143261148269722
2.983,-0.09171543704516844
2.984,-0.07693866583678582
2.985,-0.06319644893017008
2.986,-0.056719729143273154
2.987,-0.047475948476041564
2.988,-0.039826466650374495
2.989,-0.043302231927739375
2.99,-0.053534561017058724
2.991,-0.06534817430507882
2.992,-0.08199369844397622
2.993,-0.09647231975795247
2.994,-0.1048905287977829
2.995,-0.11478027622357491
2.996,-0.1173292939978804
2.997,-0.1144854673333679
2.998,-0.11492388832304153
2.999,-0.10589064220227888
3.0,-0.08895867369332353
3.001,-0.07974451720766586
3.002,-0.07263823956249112
3.003,-0.06759264020570167
3.004,-0.06900347421175593
3.005,-0.07369349861762324
3.006,-0.07899344428799002
3.007,-0.08189637175151508
3.008,-0.08725116941658476
3.009,-0.10095768095964648
3.01,-0.11113000049229142
3.011,-0.11320430662932368
3.012,-0.11498067485865339
3.013,-0.11160167372698951
3.014,-0.10248152649341646
3.015,-0.09720630685677706
3.016,-0.09342725072313011
3.017,-0.0977661947447694
3.018,-0.0917457561729918
3.019,-0.07674907671457548
3.02,-0.07100676853760436
3.021,-0.07360372749123499
3.022,-0.07649657981373141
3.023,-0.07853368425467717
3.024,-0.08147300025134724
3.025,-0.07899740402102538
3.026,-0.07773069732709656
3.027,-0.0802593833118067
3.028,-0.08116464455935747
3.029,-0.0800659674512585
3.03,-0.07567334934345943
3.031,-0.0638403343833365
3.032,-0.05860672957340198
3.033,-0.05621898591990703
3.034,-0.058118530894668397
3.035,-0.05289365564822814
3.036,-0.036197936417234636
3.037,-0.028646029888196554
3.038,-0.03770418174317175
3.039,-0.0375962390455231
3.04,-0.03524524353049676
3.041,-0.04826555624974336
3.042,-0.0570116577053851
3.043,-0.058678889691180534
3.044,-0.05944062936606526
3.045,-0.06759800301858514
3.046,-0.08271416939931375
3.047,-0.08670653417790991
3.048,-0.07787702005502255
3.049,-0.07287160167673197
3.05,-0.07257366910572655
3.051,-0.06194880943018907
3.052,-0.056868668332303085
3.053,-0.06394656123458622
3.054,-0.06641629600859449
3.055,-0.07007831220226832
3.056,-0.07432503046057586
3.057,-0.07824252583362451
3.058,-0.08477112282695658
3.059,-0.09289607985011349
3.06,-0.09083343532701323
3.061,-0.08717655449999252
3.062,-0.08297590358730546
3.063,-0.0747367819197192
3.064,-0.06633485115944077
3.065,-0.05486444844244708
3.066,-0.04544699839217113
3.067,-0.03903404818192231
3.068,-0.03924023770511067
3.069,-0.04823581402320828
3.07,-0.05871726157432998
3.071,-0.06496038339169284
3.072,-0.06994542132625088
3.073,-0.07753125966244234
3.074,-0.08364764428342551
3.075,-0.0894720053523006
3.076,-0.08956112168913954
3.077,-0.08991662691092557
3.078,-0.08797545155172452
3.079,-0.07952941875208433
3.08,-0.07258999081608605
3.081,-0.07122259987098475
3.082,-0.07137880724100037
3.083,-0.0727533507876677
3.084,-0.07368749932589959
3.085,-0.07513132760711223
3.086,-0.0866672966822208
3.087,-0.09758771335367929
3.088,-0.1020108460335856
3.089,-0.1180157828763951
3.09,-0.13077497360414259
3.091,-0.12666558888714063
3.092,-0.13434561735310238
3.093,-0.1547869284075763
3.094,-0.15726419651319065
3.095,-0.14730457544636102
3.096,-0.13660758236534662
3.097,-0.1349474153103973
3.098,-0.14007084703481723
3.099,-0.1396031450127321
3.1,-0.13197254716280032
3.101,-0.13336109607608745
3.102,-0.1366864700707974
3.103,-0.14061612316414054
3.104,-0.14761174935103333
3.105,-0.14699896967434153
3.106,-0.15305436827470587
3.107,-0.1600997966540978
3.108,-0.15259250674587785
3.109,-0.14719947038729594
3.11,-0.1488454507606242
3.111,-0.14172711821123776
3.112,-0.13028962291316343
3.113,-0.12116714360512329
3.114,-0.11109435160760842
3.115,-0.10580060585622117
3.116,-0.099902132035693
3.117,-0.09780868100199008
3.118,-0.10165976723580872
3.119,-0.10330156075324026
3.12,-0.10530934463396124
3.121,-0.11505309993675258
3.122,-0.1197964833967493
3.123,-0.12181354028813979
3.124,-0.121504086140233
3.125,-0.12048852403091487
3.126,-0.12466608801488765
3.127,-0.12522663246594706
3.128,-0.11961407131161883
3.129,-0.11244798080364886
3.13,-0.1084171741113548
3.131,-0.10816388183599022
3.132,-0.10417862919458692
3.133,-0.10272372189858807
3.134,-0.10779786266940437
3.135,-0.1171468518014232
3.136,-0.11931701685897551
3.137,-0.12474052901745773
3.138,-0.1338364726615803
3.139,-0.13810936560828882
3.14,-0.1372280816962985
3.141,-0.1370724407741609
3.142,-0.13874116351878726
3.143,-0.13952213034718758
3.144,-0.14083252917912148
3.145,-0.14314130781963813
3.146,-0.14188856698101687
3.147,-0.1344159025383991
3.148,-0.1299185684213624
3.149,-0.13242549250013394
3.15,-0.13680771744491238
3.151,-0.13781086678136872
3.152,-0.13810365881388897
3.153,-0.13833283520673417
3.154,-0.1331752077206654
3.155,-0.1303794992661381
3.156,-0.13179360333002132
3.157,-0.1313760277896247
3.158,-0.12719292043032823
3.159,-0.11840372791603966
3.16,-0.11623907920541515
3.161,-0.12097409619623953
3.162,-0.11189944417498571
3.163,-0.1022915573285292
3.164,-0.10338304757616275
3.165,-0.10833454864910114
3.166,-0.10721009104068545
3.167,-0.10295919875573628
3.168,-0.10340971829365572
3.169,-0.11727538744968131
3.17,-0.13618093967971276
3.171,-0.13270504162012395
3.172,-0.12443788484306934
3.173,-0.13204646686473734
3.174,-0.14433740306528584
3.175,-0.14630543986116973
3.176,-0.13915640731863804
3.177,-0.12829644714575034
3.178,-0.1272847113273946
3.179,-0.13175350986156653
3.18,-0.12930681224662444
3.181,-0.1334135977344127
3.182,-0.13431544389682107
3.183,-0.1329670209222789
3.184,-0.13702358857314295
3.185,-0.14488174780656748
3.186,-0.15176990521862974
3.187,-0.1548750177899292
3.188,-0.150484218406797
3.189,-0.15311564752562148
3.19,-0.15261335445975968
3.191,-0.14418667728887913
3.192,-0.13538423249994772
3.193,-0.1260048043825348
3.194,-0.11695968746971705
3.195,-0.11211093631534563
3.196,-0.10611542372982113
3.197,-0.10030433652389217
3.198,-0.1006216059701614
3.199,-0.10363383287217783
3.2,-0.10561059579548035
3.201,-0.10566031603522054
3.202,-0.10289586232423438
3.203,-0.10559808429929053
3.204,-0.10234575780042768
3.205,-0.09408702742255488
3.206,-0.08813906214176441
3.207,-0.08311696219583245
3.208,-0.0708070502959262
3.209,-0.060010649537663156
3.21,-0.05639002721864683
3.211,-0.05434721764639316
3.212,-0.05295914759625977
3.213,-0.05498042945075456
3.214,-0.060910925603167236
3.215,-0.07111175881638199
3.216,-0.07494370125505102
3.217,-0.0738978760930834
3.218,-0.07369125860930571
3.219,-0.07130794822014463
3.22,-0.06997967960192229
3.221,-0.07311274837539168
3.222,-0.08018037684238559
3.223,-0.08460688507505343
3.224,-0.08467122105594994
3.225,-0.08245218884394462
3.226,-0.08782730459016569
3.227,-0.0905240184431553
3.228,-0.08620914695078916
3.229,-0.09159281983712746
3.23,-0.10051938058527365
3.231,-0.09502053168238306
3.232,-0.09431506524758632
3.233,-0.09975277036573915
3.234,-0.10271450099783333
3.235,-0.10349247966922061
3.236,-0.10518166326548439
3.237,-0.11361249805184294
3.238,-0.12634735367428193
3.239,-0.13074882623476386
3.24,-0.13011092106764563
3.241,-0.1368277424344671
3.242,-0.1365626532021819
3.243,-0.12937699547456946
3.244,-0.12278285596907945
3.245,-0.11769846451604181
3.246,-0.11530505918376564
3.247,-0.11482630869412674
3.248,-0.1152707989244853
3.249,-0.12019012570002933
3.25,-0.12550658812972768
3.251,-0.13245426321785425
3.252,-0.14865676122467458
3.253,-0.1573379270852704
3.254,-0.15863352288854016
3.255,-0.1629484339692572
3.256,-0.16329045559004426
3.257,-0.15651168231294607
3.258,-0.14640273124761366
3.259,-0.1286113269653298
3.26,-0.10439036730991776
3.261,-0.09121493179927116
3.262,-0.08833578498202362
3.263,-0.09035274600485262
3.264,-0.09489109833724832
3.265,-0.11044739692949318
3.266,-0.1334403733365013
3.267,-0.1534638486642599
3.268,-0.1716991924188639
3.269,-0.18941281341096217
3.27,-0.19844606947885188
3.271,-0.19860480062998628
3.272,-0.1978738375452838
3.273,-0.18541500390653937
3.274,-0.16634888201565318
3.275,-0.1513626487302191
3.276,-0.13422012784627246
3.277,-0.12126892390961576
3.278,-0.12103920171169191
3.279,-0.12100933452481556
3.28,-0.127579179995766
3.281,-0.14024924654622115
3.282,-0.1519623040903311
3.283,-0.15653178344784885
3.284,-0.165065362473443
3.285,-0.17629580773203163
3.286,-0.18275361376650567
3.287,-0.17775239179006716
3.288,-0.17220037764904866
3.289,-0.1702905311212711
3.29,-0.16814876809377227
3.291,-0.16452870982469095
3.292,-0.16062969167173738
3.293,-0.15608491871973718
3.294,-0.15312500850784225
3.295,-0.15387799367561655
3.296,-0.1407303291606458
3.297,-0.12465338034151315
3.298,-0.11740172865826956
3.299,-0.11351417858743251
3.3,-0.10609125182016987
3.301,-0.1063755019624524
3.302,-0.11021179247293272
3.303,-0.1155020581317991
3.304,-0.1217835590319007
3.305,-0.13204620687754132
3.306,-0.14586394617997164
3.307,-0.15285411979230315
3.308,-0.13940883431534173
3.309,-0.11757787080933636
3.31,-0.08193781004460994
3.311,-0.02126776755430941
3.312,0.06812616454331469
3.313,0.17353971318879918
3.314,0.2794730662198806
3.315,0.3756359008057141
3.316,0.46519829585199823
3.317,0.5380704621048319
3.318,0.5839717608740075
3.319,0.6150719783897557
3.32,0.6440536552896103
3.321,0.6725432287929274
3.322,0.6999736197353074
3.323,0.735050521048856
3.324,0.7910778398911872
3.325,0.8764374297105626
3.326,0.9865049030561094
3.327,1.1232171167322216
3.328,1.2753980674923895
3.329,1.4208170615217295
3.33,1.5488199294517953
3.331,1.6572653789613083
3.332,1.7274351319394592
3.333,1.7465812727433063
3.334,1.7248297556335224
3.335,1.6602666100612828
3.336,1.5521745592128988
3.337,1.4115374923488486
3.338,1.2590614561403337
3.339,1.131049485810653
3.34,1.043497096311396
3.341,0.978739646805888
3.342,0.924887966187752
3.343,0.8841513128920399
3.344,0.8609914892014419
3.345,0.8409066201542085
3.346,0.7985338319924475
3.347,0.7267063337576243
3.348,0.6341115756274988
3.349,0.5162707578631802
3.35,0.37968221740782065
3.351,0.23011965499515677
3.352,0.06322382404787158
3.353,-0.10035327167968336
3.354,-0.2279205377226795
3.355,-0.31149338880246136
3.356,-0.34401917629381923
3.357,-0.32288888803164223
3.358,-0.2746730506557879
3.359,-0.21715811565794357
3.36,-0.1618796749908495
3.361,-0.11642954118545289
3.362,-0.07684179582642892
3.363,-0.05033518090063695
3.364,-0.04461284936213103
3.365,-0.05681135821138728
3.366,-0.08407017763532526
3.367,-0.11958348528165798
3.368,-0.15491721623267446
3.369,-0.19233930906335917
3.37,-0.22392415561662693
3.371,-0.23624856326740576
3.372,-0.2245833221834766
3.373,-0.20058385473357862
3.374,-0.18057602570682452
3.375,-0.16560189205961312
3.376,-0.14642329205666615
3.377,-0.13167446961148152
3.378,-0.1273120502533579
3.379,-0.12544208644030297
3.38,-0.13052446433913767
3.381,-0.14488090814391805
3.382,-0.15637838422170489
3.383,-0.1641344876777688
3.384,-0.17109864865754784
3.385,-0.1773993181134792
3.386,-0.1794036197388929
3.387,-0.17449966559994515
3.388,-0.16466936998180365
3.389,-0.1599596333981502
3.39,-0.15997486896123042
3.391,-0.15650216368530193
3.392,-0.1583456901645272
3.393,-0.17139769021998563
3.394,-0.18692049229644322
3.395,-0.19296891868736554
3.396,-0.1878543145557008
3.397,-0.1855455845829515
3.398,-0.18991946538160628
3.399,-0.18080741180384666
3.4,-0.1598318490829771
3.401,-0.15207017514894275
3.402,-0.1506210946588223
3.403,-0.14416723095766712
3.404,-0.1396268734333308
3.405,-0.14696697451398272
3.406,-0.1622140301869664
3.407,-0.17365714105584204
3.408,-0.17519745979863016
3.409,-0.1817687618360924
3.41,-0.1907409401100958
3.411,-0.19522409440633864
3.412,-0.18921381700913173
3.413,-0.17955298644246656
3.414,-0.17072425380046502
3.415,-0.16552215815549862
3.416,-0.15567724881679806
3.417,-0.146512111730455
3.418,-0.14369966692924696
3.419,-0.13817002578794468
3.42,-0.1371790816443098
3.421,-0.14651713340637054
3.422,-0.1528066708870086
3.423,-0.15382104303070368
3.424,-0.15175349293862686
3.425,-0.1513790688355453
3.426,-0.15107704033849556
3.427,-0.14771298215013784
3.428,-0.14141069775247198
3.429,-0.1422679592043509
3.43,-0.14508162162657104
3.431,-0.14514472775683562
3.432,-0.14716159899667688
3.433,-0.1533003868717279
3.434,-0.1593719786658885
3.435,-0.1640961575369417
3.436,-0.16339652824257853
3.437,-0.16565905342939696
3.438,-0.17189646944229395
3.439,-0.16678072059100796
3.44,-0.1485335903543607
3.441,-0.14069593790277782
3.442,-0.14082196329175214
3.443,-0.1381612447585174
3.444,-0.1343945039659593
3.445,-0.13847851039724837
3.446,-0.150633459414735
3.447,-0.15947715957920847
3.448,-0.16128045819957051
3.449,-0.1692936787414209
3.45,-0.17507946828022378
3.451,-0.17278623081864544
3.452,-0.1623084039824242
3.453,-0.1513026529971022
3.454,-0.14005787858378327
3.455,-0.12524587361050563
3.456,-0.10260268299179744
3.457,-0.09160363342226364
3.458,-0.09519517355127992
3.459,-0.0896342858196148
3.46,-0.08946401306951421
3.461,-0.1046262318663527
3.462,-0.11068579667994882
3.463,-0.11211896867783358
3.464,-0.11760773428012318
3.465,-0.12028222579678273
3.466,-0.1248655452965382
3.467,-0.12669612909631425
3.468,-0.1236279508194182
3.469,-0.12583317254265886
3.47,-0.129550459129325
3.471,-0.12483150362398993
3.472,-0.12233678042747088
3.473,-0.12621979768356847
3.474,-0.13111985439194468
3.475,-0.13926065185542946
3.476,-0.1456307504223416
3.477,-0.1542060777726976
3.478,-0.16316749607151046
3.479,-0.1640689984131846
3.48,-0.15892359093898792
3.481,-0.16019170678620218
3.482,-0.15667728236938933
3.483,-0.15135521810289213
3.484,-0.1441671410982743
3.485,-0.1328277013523489
3.486,-0.13068025991905596
3.487,-0.13762974571846284
3.488,-0.13716416686307206
3.489,-0.1384582225872587
3.49,-0.14653635705833662
3.491,-0.14746158088989683
3.492,-0.14651246755435798
3.493,-0.1453144105937672
3.494,-0.14390145743593535
3.495,-0.1366995001750165
3.496,-0.12443723860201632
3.497,-0.11200497639928782
3.498,-0.1022903557410528
3.499,-0.09502301692659552
3.5,-0.0856566423771927
3.501,-0.08130796310266569
3.502,-0.08176014542042842
3.503,-0.0845251557597061
3.504,-0.08994882257750687
3.505,-0.09133542809113665
3.506,-0.09206688072521776
3.507,-0.08969483956631107
3.508,-0.08099153367790703
3.509,-0.07495462271436698
3.51,-0.0737711198055301
3.511,-0.0677531150559175
3.512,-0.06126232418195601
3.513,-0.05664070267232644
3.514,-0.05116079491203469
3.515,-0.05000322128834978
3.516,-0.04226136026259067
3.517,-0.034966613987384904
3.518,-0.03412315789903154
3.519,-0.03573969224380369
3.52,-0.03684760280520459
3.521,-0.03749949854968354
3.522,-0.032748120773859524
3.523,-0.030611594312023035
3.524,-0.03703543928801821
3.525,-0.042863579910728526
3.526,-0.04782929325169398
3.527,-0.05057287769094596
3.528,-0.04868669548015626
3.529,-0.051781526832175656
3.53,-0.056562394028174756
3.531,-0.047898527230131084
3.532,-0.046871830546199617
3.533,-0.04979128167682885
3.534,-0.046166654983519795
3.535,-0.037642667740158675
3.536,-0.032902590095280425
3.537,-0.03255692345654218
3.538,-0.030036573991645266
3.539,-0.023510181505637343
3.54,-0.026841755335039113
3.541,-0.038598091887808675
3.542,-0.04010679625761313
3.543,-0.041556687240105236
3.544,-0.05012460411478475
3.545,-0.05210759968106513
3.546,-0.05103814368689375
3.547,-0.04776254831545838
3.548,-0.038468919079732815
3.549,-0.03165945590120189
3.55,-0.028071376651069534
3.551,-0.02355945175772081
3.552,-0.02195961053691317
3.553,-0.018956204200349908
3.554,-0.013974779815104773
3.555,-0.0181177999917231
3.556,-0.023153431961815366
3.557,-0.0315586046365818
3.558,-0.043608522396027596
3.559,-0.05549724500987002
3.56,-0.061469040091141125
3.561,-0.06993876140349892
3.562,-0.07558168624158977
3.563,-0.0763786335810545
3.564,-0.07560983357465657
3.565,-0.07479962366822206
3.566,-0.07762216749242604
3.567,-0.08078469327398566
3.568,-0.08190821199974813
3.569,-0.08642576577964001
3.57,-0.09351499926610202
3.571,-0.09307581843118536
3.572,-0.09675613087310633
3.573,-0.11102046118406866
3.574,-0.12524898082324218
3.575,-0.1328494011859876
3.576,-0.14036210666567014
3.577,-0.14854020235602586
3.578,-0.15139060287427286
3.579,-0.1441691428671808
3.58,-0.14333077861152088
3.581,-0.14844388249806406
3.582,-0.14508402681549054
3.583,-0.14272637619553707
3.584,-0.1476561736791862
3.585,-0.15091370506941415
3.586,-0.1562840606396018
3.587,-0.1673340182283619
3.588,-0.16948984775209633
3.589,-0.16614230854115927
3.59,-0.17075995538168962
3.591,-0.1739900653133693
3.592,-0.17172843647435573
3.593,-0.16414470994850208
3.594,-0.15665780312996863
3.595,-0.1548651093934617
3.596,-0.15443766604327142
3.597,-0.15399993396914166
3.598,-0.15601593962539057
3.599,-0.15670267041403305
3.6,-0.15598688393694615
3.601,-0.16051371134459866
3.602,-0.17370601232616398
3.603,-0.18186411214608006
3.604,-0.1802880645863061
3.605,-0.17840035895983292
3.606,-0.17884684407087087
3.607,-0.17655763081942616
3.608,-0.17475712609016963
3.609,-0.17692175808840255
3.61,-0.16769359935534095
3.611,-0.15476614860542745
3.612,-0.1567634695619505
3.613,-0.16513477897378903
3.614,-0.16208328597445448
3.615,-0.15854128297478676
3.616,-0.15519452745763548
3.617,-0.16054960039259827
3.618,-0.17203000814121477
3.619,-0.16708183559611697
3.62,-0.1572686774357823
3.621,-0.1603385029312525
3.622,-0.16725137054717884
3.623,-0.1701651602151843
3.624,-0.17038500792223477
3.625,-0.16928915767286065
3.626,-0.17124807562348257
3.627,-0.17155411487641545
3.628,-0.1623757801134846
3.629,-0.15574450366375922
3.63,-0.16357420296453068
3.631,-0.1707064456365825
3.632,-0.16696844432382937
3.633,-0.16522856477058973
3.634,-0.1684350995078851
3.635,-0.17362847373642612
3.636,-0.17592379605988928
3.637,-0.17446819775844985
3.638,-0.17538397729547547
3.639,-0.18171262784474707
3.64,-0.18737536025818605
3.641,-0.1851625050649363
3.642,-0.1857577974965473
3.643,-0.18179536831880616
3.644,-0.1789390877900343
3.645,-0.17596761923732865
3.646,-0.1748456689922632
3.647,-0.16976331271394143
3.648,-0.16013086977897906
3.649,-0.1605255938748563
3.65,-0.16559670491011813
3.651,-0.15694485633338798
3.652,-0.14899890604658367
3.653,-0.15191522623494064
3.654,-0.1595219946591804
3.655,-0.1623232587605968
3.656,-0.15756639004441284
3.657,-0.15636398130313828
3.658,-0.16384979784583037
3.659,-0.16534046652227663
3.66,-0.1634719415913201
3.661,-0.1612831857817878
3.662,-0.15422851246337843
3.663,-0.14611306756122536
3.664,-0.14096054279165246
3.665,-0.13383556689183757
3.666,-0.12965264787882744
3.667,-0.12800707331955163
3.668,-0.12705997021722476
3.669,-0.1355002449061413
3.67,-0.14659207472082889
3.671,-0.1493006447999762
3.672,-0.15747397564517052
3.673,-0.16704785515767814
3.674,-0.17223621170290876
3.675,-0.17367170550720726
3.676,-0.17147046142914132
3.677,-0.17020899818365715
3.678,-0.17181783222452718
3.679,-0.16041180091154209
3.68,-0.1470888741450957
3.681,-0.14173486823667913
3.682,-0.13886998669939934
3.683,-0.14056482389418198
3.684,-0.14644002982078644
3.685,-0.1487478848128973
3.686,-0.1585186712254303
3.687,-0.16874290626830118
3.688,-0.17255444041744755
3.689,-0.17438019857166737
3.69,-0.17202966446582788
3.691,-0.16170952385104598
3.692,-0.15896367910116557
3.693,-0.15855317829204882
3.694,-0.15530166864294775
3.695,-0.14693769540394983
3.696,-0.1429645387653756
3.697,-0.14658161241446568
3.698,-0.15467023568501706
3.699,-0.1618432088418653
3.7,-0.16654481962199838
3.701,-0.16817825751491297
3.702,-0.17723278044558602
3.703,-0.18838417246663705
3.704,-0.19054864958181017
3.705,-0.1828809105218814
3.706,-0.17771921241610233
3.707,-0.17849160636981695
3.708,-0.17860546304049119
3.709,-0.18334553730066633
3.71,-0.19080348650928947
3.711,-0.19085453524795484
3.712,-0.18518645007555778
3.713,-0.18137440576615263
3.714,-0.18398514702371319
3.715,-0.18668722683866487
3.716,-0.180342434697807
3.717,-0.16805718003693865
3.718,-0.1601808277225396
3.719,-0.15724910139494838
3.72,-0.15788238374415173
3.721,-0.1566586246546238
3.722,-0.14998655571431707
3.723,-0.149005722081469
3.724,-0.15353524184887815
3.725,-0.16008404275087224
3.726,-0.16792338305458188
3.727,-0.17121008408993435
3.728,-0.17213853652875738
3.729,-0.1830932611303871
3.73,-0.18477288880216067
3.731,-0.1742611163981588
3.732,-0.1710296491100791
3.733,-0.17087059137503346
3.734,-0.1687688505200731
3.735,-0.17173639794630619
3.736,-0.1686375635337232
3.737,-0.16403653921563285
3.738,-0.17109455930024328
3.739,-0.18053549578743552
3.74,-0.1886864710714977
3.741,-0.20158677823298077
3.742,-0.2171463353463017
3.743,-0.22332625391625216
3.744,-0.22631039159365707
3.745,-0.23063858789927782
3.746,-0.2312792420806402
3.747,-0.2236296635121974
3.748,-0.2124452313195796
3.749,-0.20871058185169397
3.75,-0.20447567024900537
3.751,-0.19768500247444618
3.752,-0.19202876530338556
3.753,-0.19084006020523508
3.754,-0.1870539065552419
3.755,-0.19123272794869062
3.756,-0.19865164794274204
3.757,-0.20242708103040608
3.758,-0.2096654529521514
3.759,-0.21260644792069197
3.76,-0.20573721397107275
3.761,-0.2008599307630962
3.762,-0.19210386411452587
3.763,-0.18388287804636486
3.764,-0.18180859952190828
3.765,-0.1795764656711224
3.766,-0.1748456065782131
3.767,-0.16813343017662807
3.768,-0.15774206556958847
3.769,-0.15672729824136206
3.77,-0.16391256528517753
3.771,-0.16094246079352348
3.772,-0.15836347157890085
3.773,-0.16671546179478083
3.774,-0.17261640138596196
3.775,-0.17082504739261334
3.776,-0.161271215962014
3.777,-0.15904992980725335
3.778,-0.1683828103682008
3.779,-0.16855627806558057
3.78,-0.16185029265359033
3.781,-0.16547276914868161
3.782,-0.1705132286767358
3.783,-0.17092503276963697
3.784,-0.16953954154426853
3.785,-0.17010890439708862
3.786,-0.17036822814156996
3.787,-0.1701037409601161
3.788,-0.17021210687592903
3.789,-0.16973756731487571
3.79,-0.1728778445649988
3.791,-0.16295595247516872
3.792,-0.15636204166694637
3.793,-0.16147579843185778
3.794,-0.16658443269035023
3.795,-0.16581297050121876
3.796,-0.16508197094522753
3.797,-0.1681030993716188
3.798,-0.1714160027761043
3.799,-0.16746192177162755
3.8,-0.1616819622139281
3.801,-0.16762242954802906
3.802,-0.17002726818881392
3.803,-0.1648990514287117
3.804,-0.15651503545366563
3.805,-0.15039271094748285
3.806,-0.14620865761333868
3.807,-0.13768359021896062
3.808,-0.13045352047306955
3.809,-0.12995050860843976
3.81,-0.13531571451194
3.811,-0.13336234822094659
3.812,-0.13859746372439308
3.813,-0.14730084879023972
3.814,-0.14764849391775112
3.815,-0.14485931892699683
3.816,-0.13733873672481142
3.817,-0.13879233377477435
3.818,-0.14328766085582295
3.819,-0.1392511234981525
3.82,-0.13139867040341002
3.821,-0.12261127056135225
3.822,-0.11577674597825029
3.823,-0.11862635127272443
3.824,-0.11659618670413557
3.825,-0.11273965650163383
3.826,-0.12070833957204928
3.827,-0.13480637342517846
3.828,-0.13810998670974406
3.829,-0.1376316384849096
3.83,-0.14249962029256527
3.831,-0.1451206028983986
3.832,-0.14429516250589955
3.833,-0.13626440549630225
3.834,-0.13067799961297405
3.835,-0.1284880147021153
3.836,-0.12378641363728866
3.837,-0.11561435984154564
3.838,-0.11877683298769708
3.839,-0.11769539384175383
3.84,-0.11132542789527784
3.841,-0.1181530031163721
3.842,-0.13027261562212786
3.843,-0.13653304535875982
3.844,-0.14172678404553674
3.845,-0.15079106802450984
3.846,-0.1589866858965682
3.847,-0.15702466699012416
3.848,-0.14511990462486937
3.849,-0.1379630914079084
3.85,-0.14061587347760818
3.851,-0.135346564309317
3.852,-0.12343306551439319
3.853,-0.12096439928627652
3.854,-0.12267186162092246
3.855,-0.12781552932144502
3.856,-0.13414274540124824
3.857,-0.13992386665467918
3.858,-0.15405883535216947
3.859,-0.1762378219210942
3.86,-0.20013172647590505
3.861,-0.2115846444313565
3.862,-0.21078080129276092
3.863,-0.21036265638795512
3.864,-0.20548408933554965
3.865,-0.19479171287199185
3.866,-0.19033714730174367
3.867,-0.18543230574995642
3.868,-0.17346728235110143
3.869,-0.16771545210748168
3.87,-0.16715231892036717
3.871,-0.16731324661921385
3.872,-0.17021057148356394
3.873,-0.1783231577116414
3.874,-0.19466198397744608
3.875,-0.21090490306913545
3.876,-0.21758359133772803
3.877,-0.22029730648755408
3.878,-0.2219227503858449
3.879,-0.21778817200306036
3.88,-0.20678344453104788
3.881,-0.19838614089124204
3.882,-0.1915957695799
3.883,-0.178782718412965
3.884,-0.16547289746738736
3.885,-0.1591011042456703
3.886,-0.15577341990170396
3.887,-0.15007974339184602
3.888,-0.14599113785825454
3.889,-0.15686352296420933
3.89,-0.17255123605552145
3.891,-0.179614050195441
3.892,-0.1805829789401504
3.893,-0.18123723256267374
3.894,-0.1838399373101011
3.895,-0.18428526101304885
3.896,-0.1781241880908148
3.897,-0.17045822337737832
3.898,-0.167715983844066
3.899,-0.16535211981214556
3.9,-0.16252629102296529
3.901,-0.16682784444964752
3.902,-0.17210699167507076
3.903,-0.17845564932207322
3.904,-0.18535326894919116
3.905,-0.1939598121987902
3.906,-0.19750587408327902
3.907,-0.19470548129961135
3.908,-0.18210592744880377
3.909,-0.17229453080171783
3.91,-0.1619046652992733
3.911,-0.14339964835979657
3.912,-0.13265684347647258
3.913,-0.13241739453633583
3.914,-0.13370057680290456
3.915,-0.1322982641252358
3.916,-0.12645973980868067
3.917,-0.12784928104727197
3.918,-0.14581232794885138
3.919,-0.14892834486570328
3.92,-0.1317702188944604
3.921,-0.1077426438684636
3.922,-0.06884553909048957
3.923,-0.0042098996765202405
3.924,0.08271562058729985
3.925,0.1843924486196818
3.926,0.28482589136059255
3.927,0.37551963711304087
3.928,0.45859918915236686
3.929,0.531910067259613
3.93,0.5858878057819571
3.931,0.6250253092873748
3.932,0.6568258865623959
3.933,0.6892175119219028
3.934,0.7235006577266795
3.935,0.7609909201679425
3.936,0.811581734044208
3.937,0.8894786614957816
3.938,0.9903384062012267
3.939,1.1219841801909607
3.94,1.2717737239912876
3.941,1.398583170511587
3.942,1.5012589685955195
3.943,1.5903015058804566
3.944,1.6494947522546601
3.945,1.6611964098641898
3.946,1.6260541996877669
3.947,1.5570082763444821
3.948,1.4555614994558865
3.949,1.3244271860495385
3.95,1.1847752040704265
3.951,1.069371565712072
3.952,0.9849300702041689
3.953,0.9249620300997522
3.954,0.8773267214406467
3.955,0.842565204511245
3.956,0.8139646042628167
3.957,0.7791728481081852
3.958,0.7320879073891902
3.959,0.6666979594784052
3.96,0.5705581196002948
3.961,0.4456538050240057
3.962,0.31850878606326927
3.963,0.1775281407216577
3.964,0.020699000972314044
3.965,-0.12911843558566008
3.966,-0.2540098903870726
3.967,-0.327622717012176
3.968,-0.34130687351793704
3.969,-0.3225984107867721
3.97,-0.29098166041530465
3.971,-0.23599356078798325
3.972,-0.1718462085319456
3.973,-0.12282198008703003
3.974,-0.08272635697455286
3.975,-0.055662784123408304
3.976,-0.044326862757552606
3.977,-0.056917557665523213
3.978,-0.08665003390292342
3.979,-0.12174920414213727
3.98,-0.1617239243160575
3.981,-0.19968233627499257
3.982,-0.2254546030467669
3.983,-0.2353371183051951
3.984,-0.22235141830942423
3.985,-0.19300533867026087
3.986,-0.16463518443139938
3.987,-0.14247898862447347
3.988,-0.11567004641084633
3.989,-0.08834125014043358
3.99,-0.08099620186070278
3.991,-0.08524129556494188
3.992,-0.09289737668854788
3.993,-0.10243559093725696
3.994,-0.11762388324288771
3.995,-0.13823868491829608
3.996,-0.14869529182915628
3.997,-0.15347857954843966
3.998,-0.16330559631141137
3.999,-0.16701183954844304
4.0,-0.16321079903858182
4.001,-0.15981997392251882
4.002,-0.1565678819239706
4.003,-0.1595924251809866
4.004,-0.16621363214297663
4.005,-0.1729202480489414
4.006,-0.1815599487831886
4.007,-0.18967799721701828
4.008,-0.18591837126518038
4.009,-0.18239080373652955
4.01,-0.1829182875285898
4.011,-0.1751092285124265
4.012,-0.1652395290560867
4.013,-0.1589731753811012
4.014,-0.15598590134352125
4.015,-0.15557755404859708
4.016,-0.148360643515962
4.017,-0.14609519548586725
4.018,-0.16070754898312384
4.019,-0.17449041515763294
4.02,-0.1764421531933887
4.021,-0.17567327225427481
4.022,-0.17379393189103665
4.023,-0.1682005319270385
4.024,-0.15720120758718753
4.025,-0.14395434658818582
4.026,-0.13423369645234193
4.027,-0.12506982521520751
4.028,-0.11634304082272018
4.029,-0.11241216910653182
4.03,-0.11385510062928586
4.031,-0.11037277454808005
4.032,-0.11387358461737582
4.033,-0.1227174902443207
4.034,-0.13506633211724708
4.035,-0.1482657664729397
4.036,-0.15017906150698604
4.037,-0.14840455706672764
4.038,-0.1493341713544696
4.039,-0.14204435272741683
4.04,-0.13104605932222793
4.041,-0.12494932429856422
4.042,-0.12411477920252885
4.043,-0.1253658612227968
4.044,-0.12782131450607323
4.045,-0.12888124014331168
4.046,-0.13636708557722738
4.047,-0.14678358237482172
4.048,-0.15064550618062367
4.049,-0.15479937338326044
4.05,-0.15567225785271163
4.051,-0.14739612104489774
4.052,-0.13278277581282627
4.053,-0.12615609893716315
4.054,-0.11907773396484347
4.055,-0.11002416181685158
4.056,-0.10408231637160398
4.057,-0.10372618528960013
4.058,-0.1117193056726969
4.059,-0.11516160583305901
4.06,-0.1156692887564087
4.061,-0.12664958794729164
4.062,-0.13461370405152495
4.063,-0.13346465594275914
4.064,-0.13170321111648728
4.065,-0.12551285509821022
4.066,-0.11970998597750825
4.067,-0.10757283026273495
4.068,-0.0895863500417091
4.069,-0.0861559240882061
4.07,-0.08734695441188642
4.071,-0.08170027034624423
4.072,-0.07915617398679506
4.073,-0.09009702265210554
4.074,-0.10149427558782027
4.075,-0.10712586150714387
4.076,-0.10881746921914806
4.077,-0.10965907171956434
4.078,-0.11115566494883192
4.079,-0.11328677952970359
4.08,-0.11646921035474236
4.081,-0.1154372860429872
4.082,-0.10007076320081658
4.083,-0.09520903947767922
4.084,-0.1044904494025646
4.085,-0.10324741990528204
4.086,-0.09847437395139037
4.087,-0.09986876885814724
4.088,-0.1029302024012628
4.089,-0.11009134694417301
4.09,-0.11684970896884336
4.091,-0.11387148238905527
4.092,-0.1090471301034554
4.093,-0.1104905742092581
4.094,-0.11248706138317528
4.095,-0.11440591658068404
4.096,-0.10860114717122658
4.097,-0.09932396631984776
4.098,-0.09966685935431915
4.099,-0.10455015838409609
4.1,-0.10075144125844344
4.101,-0.09396799133637822
4.102,-0.09389534305432502
4.103,-0.09730211771635776
4.104,-0.09708335602465018
4.105,-0.08728066717184106
4.106,-0.07606609763087996
4.107,-0.06769552562043556
4.108,-0.0654444733156204
4.109,-0.06554287804155493
4.11,-0.06312483624226047
4.111,-0.05720491672910637
4.112,-0.059685545353227204
4.113,-0.06539201375506484
4.114,-0.05912483798421768
4.115,-0.051715142360362655
4.116,-0.05106840766193526
4.117,-0.04918530901259742
4.118,-0.04515457031369813
4.119,-0.04212018910982718
4.12,-0.03823216156803415
4.121,-0.04159425834117074
4.122,-0.04822335359667044
4.123,-0.04403203597356376
4.124,-0.034840397901491627
4.125,-0.030415435768707904
4.126,-0.03552924111303483
4.127,-0.038021935011241605
4.128,-0.028853434677717543
4.129,-0.020130180534154978
4.13,-0.012098488151693187
4.131,-0.0011039591569537153
4.132,0.003475440460571429
4.133,0.006308410236262467
4.134,0.012183799340274038
4.135,0.01106154518623257
4.136,0.00808874478058591
4.137,0.007576219000691276
4.138,-0.0010601370972322115
4.139,0.001619177150736391
4.14,0.009990725170079191
4.141,0.008295555774392404
4.142,0.010596509562227267
4.143,0.018774469170095065
4.144,0.017563596931820302
4.145,0.010616545773678036
4.146,0.012583690876881985
4.147,0.015187299049049625
4.148,0.012273031553489421
4.149,0.010826967498296676
4.15,0.009955089112546263
4.151,0.008831783978012436
4.152,0.0066320237635497286
4.153,0.007466406591133364
4.154,0.009337946672850478
4.155,0.006134253858269154
4.156,0.008659679053577316
4.157,0.010701219675698372
4.158,0.003112123181540767
4.159,-0.001109248876207073
4.16,0.00323121604392303
4.161,-0.0014727708289403155
4.162,-0.008679270455711048
4.163,-0.008799882727878527
4.164,-0.009333703531541414
4.165,-0.012004990119489719
4.166,-0.00987162008692941
4.167,-0.00037440345937051237
4.168,0.01069236449486025
4.169,0.012292804379837163
4.17,0.010329178803873162
4.171,0.013858055857912109
4.172,0.0063002372742507196
4.173,-0.009401069751812997
4.174,-0.021712476687616868
4.175,-0.036555831746984756
4.176,-0.0494676180368234
4.177,-0.056849255371647714
4.178,-0.06826451273479625
4.179,-0.07072729441560782
4.18,-0.0639211282244073
4.181,-0.06230183407532147
4.182,-0.054055655999818375
4.183,-0.04091284387024419
4.184,-0.025845873521369335
4.185,-0.018706218394112354
4.186,-0.018868511118569405
4.187,-0.022952541120706726
4.188,-0.02968092092405441
4.189,-0.04690542408977133
4.19,-0.06380255785778324
4.191,-0.07420522795298738
4.192,-0.08500920793049234
4.193,-0.09357645028515853
4.194,-0.09105581221595185
4.195,-0.08455624933187368
4.196,-0.07613544487777837
4.197,-0.06760286372869455
4.198,-0.061173231390179154
4.199,-0.054036949912861384
4.2,-0.05093164749106061
4.201,-0.05980007679607102
4.202,-0.06660341799962158
4.203,-0.07832869514795858
4.204,-0.09319041987701078
4.205,-0.1069874590702104
4.206,-0.12254443479303237
4.207,-0.13314925497172456
4.208,-0.1288984220683722
4.209,-0.12587976964463488
4.21,-0.12415475508459145
4.211,-0.11554290763838258
4.212,-0.10425130275594562
4.213,-0.09042377146109434
4.214,-0.08570137223305431
4.215,-0.09388388875447859
4.216,-0.10476198957609295
4.217,-0.11415518698030767
4.218,-0.12714883599230714
4.219,-0.13848266419332342
4.22,-0.1420120840312316
4.221,-0.14814827413879006
4.222,-0.15318694048815196
4.223,-0.1404580688682169
4.224,-0.1222653403490753
4.225,-0.11162679242219613
4.226,-0.10886898397407067
4.227,-0.10015700410181248
4.228,-0.09005594861256769
4.229,-0.09221320990494128
4.23,-0.10222634212792714
4.231,-0.10972340084849616
4.232,-0.12463928193599273
4.233,-0.13963160590568646
4.234,-0.15055132237691787
4.235,-0.15687226234612783
4.236,-0.15399256643254386
4.237,-0.13834743503743005
4.238,-0.1253114801852391
4.239,-0.11791207847114829
4.24,-0.10441363643804151
4.241,-0.08985866948272107
4.242,-0.08265976441144146
4.243,-0.08632525149185952
4.244,-0.09837318603437946
4.245,-0.1094489693611829
4.246,-0.11661982091876524
4.247,-0.12178309072981638
4.248,-0.12110254467213132
4.249,-0.12438191304327038
4.25,-0.12529903862682826
4.251,-0.11345382851240816
4.252,-0.10022255986686839
4.253,-0.09045163203432117
4.254,-0.08005711708437789
4.255,-0.0756155360113466
4.256,-0.0740322877275169
4.257,-0.07635700201645171
4.258,-0.08678350082627492
4.259,-0.09583276430326397
4.26,-0.10367861549039208
4.261,-0.11854589313069842
4.262,-0.12209592754926482
4.263,-0.11471723842467998
4.264,-0.10665979140005477
4.265,-0.09798450170981496
4.266,-0.0903388770486937
4.267,-0.08260647006382811
4.268,-0.07650443102197482
4.269,-0.08121434972396642
4.27,-0.09212451574817647
4.271,-0.10073825153734345
4.272,-0.11376806628729255
4.273,-0.12339639912619702
4.274,-0.12464884804492304
4.275,-0.12780229917795435
4.276,-0.13174314361083958
4.277,-0.13220123695848443
4.278,-0.12881115719949812
4.279,-0.11898817758420664
4.28,-0.10264467982373135
4.281,-0.0948055151117004
4.282,-0.09220131236413726
4.283,-0.09292277987972028
4.284,-0.10220594741636055
4.285,-0.11139091696515188
4.286,-0.12506083378663466
4.287,-0.1323309518874505
4.288,-0.1362274632991874
4.289,-0.1420783314774507
4.29,-0.14783712937711163
4.291,-0.14027584274935634
4.292,-0.1300104130471812
4.293,-0.12235750711538558
4.294,-0.11605533029448308
4.295,-0.10690817525269852
4.296,-0.09842843199937856
4.297,-0.09354836067988657
4.298,-0.09545769973982593
4.299,-0.09859586383196753
4.3,-0.10279501694216556
4.301,-0.11453955573460671
4.302,-0.1252848444718761
4.303,-0.12576789530107013
4.304,-0.12424682689839245
4.305,-0.12062305438889119
4.306,-0.12042626526937894
4.307,-0.12367154508102461
4.308,-0.12062425469843654
4.309,-0.1155259951947736
4.31,-0.11334077233251258
4.311,-0.10957349757717016
4.312,-0.10919519644427897
4.313,-0.1136849494144048
4.314,-0.11617315284032584
4.315,-0.12264969426160763
4.316,-0.12618847055958562
4.317,-0.12213864460578282
4.318,-0.12424292354391951
4.319,-0.12166133898068718
4.32,-0.10890115451636974
4.321,-0.10567452444606464
4.322,-0.104720707095369
4.323,-0.10063578235195099
4.324,-0.09574886292882652
4.325,-0.0920709811752929
4.326,-0.09432442642727633
4.327,-0.09504075560341849
4.328,-0.0886996153271985
4.329,-0.08787160494444936
4.33,-0.09332863528393226
4.331,-0.09409437673294613
4.332,-0.09042311646874851
4.333,-0.09171378956303591
4.334,-0.10038261595064872
4.335,-0.10972860047086484
4.336,-0.11082846188993783
4.337,-0.11249070111588592
4.338,-0.1162840446005471
4.339,-0.11963680266429784
4.34,-0.11898523329177267
4.341,-0.12193530434850632
4.342,-0.12039678080203196
4.343,-0.11465294373848192
4.344,-0.1083428034614176
4.345,-0.1063525402883187
4.346,-0.10663465201556888
4.347,-0.10399186647014318
4.348,-0.10587379874236827
4.349,-0.12023470072704492
4.35,-0.13848988194283718
4.351,-0.14158841167909797
4.352,-0.13919464438575435
4.353,-0.14694635570476827
4.354,-0.14973838905411269
4.355,-0.14197215053922213
4.356,-0.13071538975149358
4.357,-0.12973309569736358
4.358,-0.13537594093427416
4.359,-0.12734232642416532
4.36,-0.11935747376930254
4.361,-0.11583222298789116
4.362,-0.11957084766208105
4.363,-0.12558948826832628
4.364,-0.13308594286492442
4.365,-0.14157158778470846
4.366,-0.15814320435428034
4.367,-0.17484331108421622
4.368,-0.17303842708270345
4.369,-0.1657397124687459
4.37,-0.15980092333917442
4.371,-0.1519526336302603
4.372,-0.14266440637978603
4.373,-0.13586135537585253
4.374,-0.12755114727443606
4.375,-0.11843579186852196
4.376,-0.10858571169963133
4.377,-0.10724087101246928
4.378,-0.11077778228067496
4.379,-0.11084736948394935
4.38,-0.11765397017155702
4.381,-0.133317393634991
4.382,-0.14424376904050942
4.383,-0.14643019253524564
4.384,-0.1416429380417283
4.385,-0.1314360066563385
4.386,-0.1250102776224071
4.387,-0.11794640000362107
4.388,-0.10786993776341579
4.389,-0.10611992293601644
4.39,-0.10848941418749092
4.391,-0.1090896966489443
4.392,-0.11136225042257539
4.393,-0.12323061984021724
4.394,-0.13235476996506987
4.395,-0.14042972772209597
4.396,-0.14346259133647019
4.397,-0.14496876896010435
4.398,-0.15104781158333608
4.399,-0.1503269139268463
4.4,-0.14078981051095926
4.401,-0.1375337924417051
4.402,-0.13651243494487786
4.403,-0.13332320405300235
4.404,-0.13008725977800017
4.405,-0.1304463681573151
4.406,-0.1316741064935956
4.407,-0.13287189178470582
4.408,-0.13020089572482035
4.409,-0.12909307677796494
4.41,-0.12739012852830925
4.411,-0.12337679639233096
4.412,-0.12270063991816924
4.413,-0.12019793619698621
4.414,-0.11666854440816242
4.415,-0.12065567515057352
4.416,-0.11928638444789115
4.417,-0.11821503589766469
4.418,-0.12868787829867934
4.419,-0.13671772213367187
4.42,-0.135330230546623
4.421,-0.1278241139211048
4.422,-0.12598134314907966
4.423,-0.12317229848941015
4.424,-0.11432305933701971
4.425,-0.10574315231895114
4.426,-0.10684514131452218
4.427,-0.10581488300240179
4.428,-0.10130649655231405
4.429,-0.1042350400219661
4.43,-0.1127220175099935
4.431,-0.11221741429187647
4.432,-0.10978342251380704
4.433,-0.11148770090888639
4.434,-0.11182631847192756
4.435,-0.10608509350950267
4.436,-0.09355616691878804
4.437,-0.07855347568616772
4.438,-0.06421130684971811
4.439,-0.0440960964479391
4.44,-0.029703345956763667
4.441,-0.030939750695732005
4.442,-0.03469871614632478
4.443,-0.044622810933366855
4.444,-0.06411158470106153
4.445,-0.08658425129704059
4.446,-0.10995387441240322
4.447,-0.12522394332438477
4.448,-0.1270894962260361
4.449,-0.12441985530648472
4.45,-0.12352040668984092
4.451,-0.11611319774265126
4.452,-0.10003221619437346
4.453,-0.07868772561195465
4.454,-0.06940282009382795
4.455,-0.0727540200813744
4.456,-0.07304981771008542
4.457,-0.07605556112756928
4.458,-0.09902465650715014
4.459,-0.12503435734287693
4.46,-0.14656196291580106
4.461,-0.16518701302447023
4.462,-0.17327768058302978
4.463,-0.16952107923288814
4.464,-0.15818774050565534
4.465,-0.14307414132121699
4.466,-0.12813303793312025
4.467,-0.11186593646035659
4.468,-0.09360184125435667
4.469,-0.08581091996642302
4.47,-0.08859551983035324
4.471,-0.09846503437431539
4.472,-0.11744266059040742
4.473,-0.13648311016305853
4.474,-0.14811518646075109
4.475,-0.158175502048454
4.476,-0.16447964295588194
4.477,-0.16528922746268704
4.478,-0.1554752918253458
4.479,-0.13634169383435354
4.48,-0.12014362543680901
4.481,-0.11340089518820369
4.482,-0.10914970662267147
4.483,-0.1092907452218127
4.484,-0.1141722620545375
4.485,-0.12749826106594053
4.486,-0.14658387619133006
4.487,-0.16390678474064743
4.488,-0.1788404998369716
4.489,-0.19541604416216551
4.49,-0.19995136290531537
4.491,-0.1834146669930708
4.492,-0.1594432942742605
4.493,-0.13801210662011382
4.494,-0.11881965075695765
4.495,-0.10352053027990388
4.496,-0.08996573322261102
4.497,-0.08361172365273516
4.498,-0.09022386644339075
4.499,-0.10093747129280915
4.5,-0.11166353141159843
4.501,-0.12375232380236995
4.502,-0.13077233249448306
4.503,-0.13323660995628586
4.504,-0.13211946019116994
4.505,-0.12605124354941422
